29634
29687
29785
29887
29944
29914
29849
29827
29820
29780
29819
29896
30008
30148
30251
30355
30427
30503
30526
30475
30408
30318
30277
30226
30273
30294
30330
30348
30374
30380
30409
30430
30419
30476
30546
30669
30709
30721
30763
30791
30770
30727
30676
30676
30691
30731
30755
30752
30731
30701
30671
30693
30739
30759
30792
30760
30766
30812
30816
30816
30809
30831
30842
30806
30750
30608
30440
30358
30345
30381
30421
30459
30504
30595
30689
30810
30930
31049
31086
31083
31052
30943
30863
30857
30889
30937
30903
30909
30916
30918
30898
30834
30767
30728
30735
30791
30885
30956
31059
31069
31057
30998
30931
30886
30889
30936
31015
30990
30956
30917
30929
30982
31022
31061
31050
31013
30949
30891
30835
30806
30758
30730
30697
30683
30736
30797
30893
31022
31136
31291
31345
31386
31345
31278
31172
31064
31028
31035
31073
31141
31234
31257
31233
31150
31106
31141
31198
31282
31373
31470
31561
31556
31510
31391
31327
31323
31304
31320
31350
31469
31619
31713
31762
31819
31846
31846
31845
31820
31839
31888
32009
32203
32373
32515
32610
32765
32965
33155
33352
33478
33596
33753
33993
34284
34481
34594
34675
34808
35019
35218
35269
35236
35079
34817
34456
33993
33595
33315
33130
32983
32802
32622
32452
32335
32231
32043
31862
31682
31493
31337
31151
30970
30797
30695
30669
30740
30826
30918
30939
30945
30989
30981
30955
30885
30867
30821
30707
30624
30570
30586
30675
30765
30708
30548
30428
30450
30694
31042
31408
31823
32659
34253
36704
39771
43297
47305
51684
56452
61252
63908
64023
64023
63957
63755
61986
56462
48775
40658
33430
27864
24218
22335
21805
22177
22936
23814
24819
25719
26659
27395
28107
28645
29016
29250
29500
29771
30014
30254
30407
30450
30446
30376
30241
30080
29967
30013
30173
30386
30591
30787
30917
30989
30995
30985
30983
30937
30895
30892
30949
31024
31125
31272
31454
31594
31564
31440
31368
31363
31474
31702
31890
32008
32092
32140
32143
32157
32184
32262
32312
32273
32230
32297
32496
32803
33124
33432
33621
33754
33893
34060
34125
34143
34171
34261
34377
34533
34728
34952
35155
35323
35479
35632
35779
35867
35944
36108
36410
36783
37162
37500
37850
38151
38405
38579
38633
38633
38625
38635
38650
38681
38738
38867
39005
39129
39311
39495
39639
39645
39547
39404
39283
39169
39023
38844
38602
38297
37912
37479
37075
36697
36260
35790
35281
34796
34297
33806
33288
32797
32273
31812
31444
31111
30825
30567
30355
30220
30043
29894
29859
29876
29978
30117
30232
30281
30295
30296
30282
30249
30220
30117
29990
29948
29883
29784
29716
29689
29701
29723
29713
29656
29636
29657
29748
29783
29775
29728
29715
29767
29902
30092
30290
30443
30560
30542
30518
30503
30437
30372
30342
30355
30390
30350
30264
30251
30345
30471
30650
30792
30953
31087
31185
31228
31233
31199
31125
31055
30951
30847
30770
30742
30731
30759
30802
30810
30787
30727
30695
30736
30755
30827
30926
31001
31046
31021
31000
30970
31020
31030
31039
31024
30961
30868
30790
30779
30834
30895
30943
30949
30994
31012
31043
31069
31084
31137
31200
31307
31353
31394
31400
31399
31399
31318
31257
31183
31081
31021
30987
30954
30949
30928
30922
30943
30957
30966
30965
31000
31036
31075
31155
31186
31203
31242
31231
31185
31065
30948
30924
31072
31332
31636
31855
31980
32006
31903
31775
31631
31459
31395
31322
31245
31118
31065
31045
31009
31046
31084
31181
31303
31444
31587
31659
31696
31720
31675
31593
31492
31403
31334
31306
31337
31432
31468
31525
31507
31506
31557
31630
31695
31730
31763
31749
31763
31770
31722
31716
31662
31656
31648
31651
31653
31668
31780
31846
31962
32095
32275
32539
32826
33115
33346
33490
33528
33480
33451
33440
33483
33592
33763
34037
34406
34775
35039
35156
35152
35008
34746
34366
33978
33678
33433
33214
33014
32838
32694
32536
32383
32241
32025
31872
31719
31616
31495
31359
31268
31144
31081
31022
30954
30851
30804
30791
30776
30810
30825
30871
30939
31010
31022
31001
31000
31013
30993
30995
30900
30796
30733
30717
30802
31012
31334
31805
32384
33494
35421
38156
41328
44798
48659
52813
57137
61323
63762
63917
63877
63652
62254
57778
51190
43799
36819
31058
26890
24313
23111
22930
23187
23652
24039
24439
24952
25454
26023
26674
27273
27974
28675
29202
29646
29921
30115
30167
30197
30186
30181
30188
30187
30215
30260
30314
30440
30613
30751
30824
30891
30889
30758
30607
30505
30511
30618
30733
30866
30971
31114
31272
31447
31627
31727
31839
31922
31978
32027
32041
31998
31985
32022
32010
32026
32088
32158
32266
32408
32594
32749
32806
32832
32882
32966
33070
33130
33236
33383
33583
33828
34026
34189
34271
34358
34495
34643
34797
34979
35232
35549
35820
36019
36169
36290
36396
36540
36734
36958
37169
37419
37688
37935
38103
38216
38298
38350
38402
38464
38545
38634
38714
38732
38767
38830
38851
38821
38715
38563
38403
38187
37961
37716
37435
37098
36671
36181
35647
35131
34694
34261
33852
33428
33040
32703
32326
31974
31660
31369
31085
30801
30466
30157
29853
29650
29459
29315
29193
29065
28937
28816
28760
28720
28729
28803
28949
29118
29295
29365
29338
29268
29186
29116
29059
28987
28931
28882
28840
28854
28864
28890
28904
29030
29176
29321
29431
29438
29432
29451
29476
29512
29505
29492
29482
29488
29502
29525
29534
29524
29455
29377
29339
29396
29532
29691
29827
29943
30056
30105
30115
30086
29950
29867
29803
29815
29879
29893
29898
29844
29819
29784
29816
29902
29968
30019
30005
30005
29972
29917
29940
29910
29927
29973
30010
30055
30073
30103
30138
30146
30100
30120
30153
30152
30109
30003
29893
29815
29777
29790
29850
29961
30076
30157
30181
30179
30114
30040
29984
29968
29980
30014
30086
30111
30155
30160
30155
30182
30185
30197
30182
30181
30189
30218
30288
30368
30477
30628
30690
30724
30667
30661
30617
30527
30473
30379
30344
30312
30291
30235
30184
30123
30098
30132
30211
30308
30410
30512
30617
30647
30689
30717
30778
30818
30831
30833
30824
30842
30898
30928
30897
30836
30711
30619
30568
30627
30724
30817
30919
30953
31027
31117
31094
31048
30889
30762
30744
30775
30839
30826
30881
30932
30988
30989
30980
30940
30896
30930
31024
31117
31189
31244
31250
31280
31313
31291
31277
31251
31213
31144
31120
31125
31135
31208
31320
31496
31714
31901
32022
32143
32310
32473
32698
32922
33167
33362
33464
33540
33630
33780
33939
34059
34191
34325
34566
34853
35032
35072
34927
34644
34217
33677
33199
32855
32595
32375
32223
32109
31979
31823
31700
31593
31496
31403
31272
31090
30877
30656
30437
30290
30240
30292
30400
30512
30680
30766
30848
30875
30824
30757
30630
30520
30425
30374
30390
30449
30521
30545
30539
30473
30365
30305
30373
30621
30955
31332
32106
33506
35746
38583
41878
45695
50021
54717
59503
63483
63961
63969
63919
63660
61732
56447
49033
41083
33876
28187
24323
22219
21447
21651
22312
23178
24202
25214
26148
26909
27560
28223
28837
29201
29479
29642
29716
29755
29718
29694
29660
29663
29705
29745
29760
29760
29841
29947
30101
30257
30345
30364
30345
30293
30277
30259
30328
30441
30549
30673
30797
30923
31021
31073
31112
31183
31242
31313
31411
31515
31628
31733
31820
31878
31879
31857
31826
31785
31781
31849
31977
32192
32362
32475
32504
32525
32617
32723
32884
33045
33203
33414
33557
33709
33832
33967
34184
34380
34581
34766
34934
35118
35317
35508
35668
35856
36077
36297
36493
36756
37104
37433
37708
37899
38089
38261
38382
38506
38585
38697
38832
38941
39053
39129
39179
39241
39238
39216
39162
39101
39050
38931
38771
38533
38252
37978
37661
37295
36777
36228
35715
35198
34755
34337
33931
33555
33206
32864
32460
32119
31757
31375
31047
30737
30500
30312
30199
30034
29851
29757
29657
29599
29509
29458
29408
29360
29303
29240
29209
29234
29222
29185
29129
29068
29068
29067
29065
29069
29078
29144
29272
29451
29594
29676
29731
29712
29701
29716
29765
29796
29810
29812
29728
29726
29698
29721
29726
29718
29716
29718
29811
29898
29984
30058
30035
29977
29899
29816
29713
29676
29717
29785
29916
30053
30183
30293
30358
30382
30383
30326
30230
30121
29976
29856
29765
29701
29695
29730
29792
29881
30007
30090
30093
30091
30036
30055
30023
30043
30054
30142
30238
30306
30372
30382
30413
30375
30309
30216
30120
30056
30011
29970
29953
29903
29914
29959
30015
30089
30149
30138
30095
30088
30091
30160
30246
30314
30375
30407
30412
30386
30389
30378
30350
30285
30198
30122
30031
30018
30037
30068
30056
30093
30175
30266
30341
30409
30488
30553
30586
30554
30537
30573
30625
30637
30640
30607
30588
30555
30507
30450
30459
30510
30621
30647
30609
30446
30308
30187
30157
30183
30284
30376
30458
30506
30477
30415
30432
30538
30708
30869
30953
31006
31033
31020
30938
30903
30928
30920
30900
30871
30904
30944
30892
30800
30694
30633
30582
30549
30563
30641
30785
30885
30981
31046
31082
31108
31109
31088
31058
31027
31017
31018
31001
30924
30838
30884
30959
31076
31149
31186
31176
31119
31049
30988
30961
31053
31168
31320
31398
31432
31422
31398
31417
31433
31468
31599
31739
31850
31967
32121
32244
32422
32629
32866
33094
33186
33209
33178
33226
33351
33539
33754
34021
34391
34780
35044
35185
35199
35078
34841
34492
34099
33722
33400
33098
32810
32489
32140
31734
31396
31197
31068
31046
31018
30959
30814
30620
30410
30306
30251
30229
30254
30346
30480
30635
30728
30822
30919
30983
31007
30970
30900
30815
30729
30649
30581
30548
30429
30229
30044
29973
30092
30381
30825
31306
32037
33346
35338
37916
40945
44466
48431
52842
57599
62287
63937
64002
64004
63934
63452
60011
53491
45535
37674
31063
26230
23301
22058
21931
22412
23144
24035
25023
25915
26743
27402
28013
28577
29014
29317
29618
29760
29818
29845
29877
29839
29777
29759
29790
29893
29982
30064
30153
30223
30310
30387
30488
30515
30480
30425
30440
30508
30584
30624
30584
30566
30577
30646
30797
31046
31322
31659
31883
31978
31956
31883
31832
31837
31842
31844
31850
31891
31944
31964
31992
32008
32044
32102
32182
32358
32564
32789
33005
33167
33221
33242
33363
33554
33820
34062
34273
34456
34614
34794
34946
35093
35213
35355
35507
35681
35892
36038
36262
36460
36712
37004
37279
37524
37659
37703
37739
37843
38031
38296
38571
38802
39018
39137
39200
39197
39239
39337
39417
39507
39558
39573
39519
39341
39047
38692
38360
38030
37699
37284
36835
36305
35775
35236
34694
34194
33721
33327
32948
32584
32234
31875
31603
31395
31243
31103
30994
30812
30537
30249
30025
29885
29763
29661
29564
29539
29557
29624
29624
29620
29680
29692
29653
29651
29663
29731
29823
29818
29758
29686
29632
29624
29649
29684
29680
29690
29692
29776
29895
30072
30219
30344
30438
30531
30575
30538
30476
30404
30365
30364
30332
30306
30260
30229
30218
30214
30222
30160
30009
29881
29852
29897
29983
30096
30178
30322
30513
30728
30801
30825
30760
30538
30386
30313
30317
30420
30522
30613
30622
30631
30663
30699
30725
30686
30471
30259
30051
29919
29945
30119
30375
30699
30937
31022
30952
30818
30666
30601
30615
30669
30728
30752
30815
30853
30921
30971
31011
30988
30952
30948
30940
30990
31045
31068
31070
30984
30890
30815
30754
30740
30734
30795
30836
30942
31077
31219
31322
31356
31354
31340
31268
31179
31110
31083
31121
31086
31067
31011
30909
30924
30984
31067
31210
31374
31594
31719
31846
31888
31916
31898
31819
31718
31593
31477
31320
31177
31065
31031
31043
31016
31016
31061
31143
31313
31431
31473
31445
31433
31403
31417
31470
31566
31706
31767
31784
31780
31731
31685
31531
31335
31148
30988
30859
30826
30977
31246
31542
31750
31836
31843
31883
31959
31961
31837
31595
31357
31220
31138
31066
31084
31201
31413
31696
31927
32140
32249
32338
32448
32591
32729
32827
32937
33098
33335
33532
33604
33637
33675
33769
33892
34005
34073
34121
34224
34472
34834
35079
35136
35011
34824
34633
34349
34086
33836
33632
33399
33133
32903
32693
32557
32448
32322
32150
31951
31723
31430
31163
31009
31008
31081
31272
31463
31627
31709
31664
31567
31402
31092
30796
30514
30353
30298
30408
30676
31062
31523
31918
32088
32006
31715
31271
30892
30679
30730
31079
31632
32536
34166
36698
39890
43348
46965
50740
54791
58797
62333
63781
63872
63801
63356
60776
55333
48449
41543
35372
30440
26801
24517
23471
23365
23678
23940
24146
24383
24976
25835
26798
27629
28428
29101
29670
30006
30251
30408
30503
30603
30663
30659
30570
30475
30412
30306
30258
30348
30534
30849
31040
31177
31308
31335
31302
31214
31239
31407
31673
31952
32273
32538
32701
32711
32630
32511
32462
32439
32338
32046
31759
31682
31863
32290
32703
32983
33154
33226
33258
33338
33455
33546
33666
33805
33912
33984
33967
33917
33982
34170
34539
34989
35311
35393
35289
35208
35217
35329
35533
35696
35766
35779
35850
36067
36409
36786
37175
37482
37722
37859
38026
38268
38535
38748
38886
38958
38994
39000
38953
38990
39107
39280
39475
39673
39825
39849
39757
39644
39518
39482
39412
39290
39121
38958
38831
38649
38400
38124
37792
37452
37103
36711
36241
35576
34814
34077
33506
33168
32977
32854
32691
32402
32011
31561
31129
30879
30733
30747
30770
30712
30624
30509
30426
30399
30429
30490
30608
30653
30641
30541
30411
30256
30105
30032
30017
29889
29754
29711
29875
30207
30568
30836
30848
30619
30243
29929
29840
29974
30250
30607
30959
31202
31360
31402
31378
31318
31237
31114
31010
30888
30751
30603
30448
30376
30347
30385
30420
30525
30747
30937
31068
31137
31228
31313
31326
31261
31083
30948
30816
30732
30748
30737
30763
30823
30885
30874
30705
30500
30416
30485
30722
30927
31057
31112
31147
31200
31240
31185
31084
30946
30765
30609
30474
30471
30510
30568
30612
30664
30743
30742
30668
30545
30489
30456
30422
30400
30376
30308
30185
30161
30157
30129
30183
30388
30693
30939
31147
31308
31392
31437
31339
31203
31056
30924
30819
30740
30730
30671
30603
30555
30501
30503
30496
30357
30169
30058
30058
30175
30321
30480
30691
30875
31055
31201
31275
31241
31094
30892
30556
30361
30339
30481
30716
30961
31048
31069
31085
31149
31273
31363
31429
31381
31258
31146
31058
31053
31086
31214
31380
31444
31462
31438
31377
31371
31424
31489
31562
31555
31455
31334
31232
31152
31176
31241
31339
31435
31524
31624
31695
31632
31364
31093
30971
31011
31094
31249
31348
31451
31499
31558
31724
31978
32314
32458
32400
32263
32111
32015
31983
32036
32135
32271
32539
32820
33094
33395
33779
34141
34302
34344
34341
34435
34594
34763
34891
34965
35124
35248
35266
35174
35006
34778
34543
34345
34235
34243
34242
34119
33881
33571
33161
32759
32374
32017
31753
31508
31296
31156
31297
31562
31782
31891
31859
31782
31607
31388
31211
31016
30831
30760
30870
31093
31305
31349
31310
31277
31209
31178
31263
31381
31461
31416
31200
31056
31066
31327
31782
32308
33165
34728
36890
39507
42407
45783
49602
53817
58345
62653
63938
63992
63966
63785
62428
57581
50429
42618
35350
29649
25813
23710
22917
22759
22991
23250
23875
24894
26099
27340
28544
29469
30213
30505
30468
30153
29690
29254
29045
29058
29336
29856
30431
30849
31059
31123
31142
31114
31083
31058
30948
30818
30672
30540
30540
30711
30906
31079
31270
31379
31370
31337
31327
31374
31386
31250
31148
31124
31282
31566
31868
32154
32264
32319
32334
32280
32200
32151
32265
32454
32694
32908
32983
32941
32800
32756
32822
32985
33156
33309
33405
33383
33287
33232
33279
33453
33746
34144
34498
34743
34967
35225
35498
35724
35805
35866
35915
36062
36362
36696
36965
37040
37077
37178
37462
37851
38161
38359
38481
38518
38527
38498
38471
38439
38476
38645
38870
39094
39244
39311
39294
39104
38783
38444
38167
37877
37505
37144
36780
36431
36026
35584
35112
34463
33684
32956
32468
32306
32303
32348
32338
32257
32078
31792
31431
31048
30704
30405
30157
29963
29824
29686
29566
29461
29370
29211
29072
28947
28852
28872
28948
29077
29247
29389
29438
29374
29304
29253
29313
29373
29377
29387
29408
29467
29544
29624
29703
29748
29781
29819
29783
29663
29479
29397
29441
29557
29689
29707
29747
29781
29787
29821
29857
29892
29946
29978
29976
29946
29931
29923
29923
29944
29946
29965
30008
29960
29823
29683
29589
29565
29622
29705
29844
30028
30157
30205
30233
30291
30367
30373
30346
30258
30181
30114
30087
30015
29974
29964
29962
29944
29893
29786
29749
29723
29777
29815
29830
29859
29888
29940
29955
30019
30101
30170
30245
30252
30197
30143
30075
29984
29900
29829
29843
29906
30044
30189
30314
30430
30454
30443
30313
30111
30009
29971
30059
30168
30296
30447
30610
30711
30709
30694
30613
30530
30451
30357
30250
30119
29972
29910
29866
29865
29910
30068
30225
30315
30334
30235
30122
30133
30261
30458
30701
30814
30827
30808
30771
30727
30648
30539
30437
30345
30218
30122
30088
30091
30177
30281
30377
30412
30407
30419
30442
30573
30663
30698
30699
30678
30682
30701
30825
30954
31011
30997
30934
30902
30822
30830
30889
30920
30891
30875
30860
30799
30733
30711
30752
30832
30879
30892
30919
30945
30898
30903
30980
31081
31191
31307
31390
31481
31622
31690
31763
31775
31684
31624
31660
31853
32183
32540
32912
33124
33211
33224
33225
33245
33416
33693
33937
34209
34479
34778
35017
35109
35054
34786
34303
33699
33155
32787
32635
32604
32536
32435
32335
32236
32083
31897
31710
31489
31192
30935
30798
30707
30681
30582
30476
30364
30264
30157
30040
29941
29789
29778
29953
30249
30568
30790
30924
30943
30874
30686
30377
30087
29784
29619
29581
29711
29915
30157
30411
30700
31192
32439
34474
37130
40186
43568
47369
51645
56262
60819
63731
63903
63857
63614
62118
57646
50964
43423
36279
30315
25934
23220
21911
21694
22107
22869
23781
24798
25764
26718
27503
28245
28803
29166
29302
29314
29241
29138
29110
29152
29300
29427
29460
29458
29442
29414
29402
29450
29564
29817
30095
30289
30436
30506
30495
30419
30317
30229
30192
30183
30222
30344
30477
30565
30601
30662
30771
30990
31140
31215
31215
31182
31149
31152
31250
31402
31623
31729
31782
31824
31845
31882
31945
31996
32072
32127
32225
32399
32643
32852
33013
33149
33293
33365
33429
33501
33653
33793
33894
33998
34124
34309
34578
34885
35185
35490
35811
36125
36456
36756
36986
37138
37267
37342
37407
37456
37531
37657
37810
37924
37992
38032
37982
37984
38115
38405
38788
39084
39277
39380
39398
39315
39108
38812
38427
37993
37620
37298
36993
36664
36252
35764
35205
34633
34124
33683
33338
33096
32916
32738
32528
32268
31938
31569
31205
30880
30547
30264
29977
29766
29659
29624
29629
29753
29889
30023
30097
30123
30100
29987
29942
29866
29822
29762
29716
29696
29635
29589
29594
29529
29445
29430
29485
29637
29839
30039
30182
30300
30371
30408
30408
30361
30279
30099
29851
29665
29572
29652
29823
30099
30307
30414
30380
30313
30254
30217
30231
30256
30289
30341
30356
30426
30455
30443
30423
30352
30275
30282
30342
30381
30415
30442
30500
30514
30515
30503
30470
30394
30285
30241
30183
30183
30151
30073
30111
30217
30381
30535
30679
30738
30675
30571
30435
30379
30411
30543
30700
30778
30825
30861
30874
30815
30713
30642
30576
30495
30395
30343
30420
30632
30802
30837
30801
30722
30572
30467
30505
30642
30808
30945
31047
31062
30999
30893
30704
30539
30452
30436
30476
30515
30655
30817
30925
30959
30953
30946
30952
31019
31048
31063
31083
31183
31246
31174
30997
30787
30708
30787
30889
31015
31114
31273
31395
31449
31454
31404
31385
31338
31315
31327
31373
31348
31271
31137
31078
31154
31373
31655
31846
31954
32004
31940
31827
31684
31606
31556
31577
31593
31538
31507
31392
31210
31100
31068
31075
31100
31145
31302
31533
31817
32040
32243
32327
32302
32217
32114
31992
31934
31907
31795
31734
31748
31777
31786
31785
31822
31859
31966
32134
32309
32469
32652
32806
32998
33174
33358
33502
33583
33691
33955
34250
34415
34366
34211
34192
34461
34826
35046
35233
35365
35424
35289
34998
34488
33936
33502
33094
32774
32507
32357
32299
32328
32370
32304
32147
31948
31751
31487
31237
31077
31029
31072
31188
31297
31313
31266
31209
31149
31117
31053
30956
30800
30680
30698
30777
30909
31036
31112
31205
31184
31054
30905
30902
31055
31298
31641
32159
33350
35384
38222
41458
45018
48872
53016
57388
61512
63804
63921
63891
63682
62330
57960
51526
44350
37486
31754
27402
24694
23307
22980
23088
23396
23754
24172
24728
25364
26171
27061
27896
28719
29325
29838
30180
30345
30408
30363
30282
30211
30152
30114
30176
30300
30480
30689
30836
30883
30830
30761
30683
30623
30674
30762
30855
30865
30867
30887
30924
30931
30889
30825
30823
30952
31176
31428
31687
31890
32022
32021
31915
31787
31661
31572
31582
31707
31902
32243
32576
32762
32840
32859
32896
32917
32939
32964
33101
33322
33590
33854
34030
34132
34143
34107
34059
33998
33961
33967
33985
34156
34507
35035
35584
36112
36488
36692
36718
36638
36575
36618
36773
36973
37130
37236
37389
37517
37664
37919
38246
38561
38833
39006
39069
39033
38962
38870
38839
38878
38966
38996
38851
38525
38086
37571
37073
36773
36621
36502
36285
35936
35508
34980
34451
33954
33577
33249
32911
32597
32278
31952
31614
31209
30887
30602
30315
30088
29824
29536
29276
29113
29061
29016
29062
29210
29429
29536
29532
29429
29232
29081
29082
29315
29571
29753
29795
29790
29754
29538
29219
28985
28928
29016
29114
29214
29327
29369
29436
29552
29679
29697
29699
29688
29554
29484
29528
29652
29727
29748
29711
29708
29809
29906
30020
30159
30215
30142
29991
29911
29849
29844
29826
29799
29725
29601
29534
29703
29923
30206
30411
30519
30694
30791
30768
30562
30247
29942
29629
29400
29314
29424
29722
30039
30335
30482
30539
30482
30416
30385
30414
30446
30508
30568
30536
30483
30371
30195
30057
29952
29874
29827
29878
29981
30160
30251
30343
30364
30359
30357
30416
30461
30489
30416
30277
30052
29848
29759
29893
30166
30377
30580
30692
30665
30579
30539
30630
30650
30578
30370
30117
29901
29876
30000
30198
30436
30672
30801
30829
30856
30890
30951
30963
30941
30888
30787
30697
30699
30756
30758
30701
30601
30440
30310
30266
30266
30399
30506
30595
30609
30547
30414
30294
30307
30437
30724
31010
31204
31274
31228
31182
31133
31110
31062
30946
30816
30680
30676
30716
30747
30733
30709
30714
30804
31016
31251
31523
31793
32044
32320
32529
32692
32784
32873
32913
33059
33178
33254
33234
33173
33236
33494
33921
34317
34554
34625
34553
34364
33962
33522
33125
32753
32449
32139
31790
31492
31268
31196
31244
31370
31481
31501
31436
31333
31210
30985
30671
30344
30179
30130
30202
30264
30232
30130
29935
29690
29591
29659
29825
30101
30405
30687
30837
30914
31011
30982
30803
30444
30008
29722
29714
30044
30535
31126
32135
33859
36525
39694
43141
46855
50837
54953
58957
62398
63731
63761
63500
61919
57824
51649
44719
37994
32326
28078
25197
23561
22879
22770
22934
23160
23299
23485
23833
24314
24961
25695
26503
27369
28279
29010
29473
29780
29915
29983
29922
29817
29694
29589
29560
29591
29692
29784
29947
30110
30164
30197
30237
30312
30426
30579
30707
30771
30819
30796
30747
30767
30858
30876
30816
30766
30817
30988
31197
31427
31653
31855
32048
32141
32074
31986
31946
31947
32016
32149
32243
32379
32557
32759
32882
32942
32963
32979
33061
33108
33156
33163
33179
33287
33429
33620
33839
34087
34243
34359
34516
34754
35105
35432
35745
35992
36195
36408
36653
36857
36922
36999
37109
37232
37431
37623
37744
37799
37818
37829
37841
37901
37968
38087
38249
38396
38456
38452
38385
38382
38418
38417
38351
38100
37723
37326
36955
36564
36029
35530
35070
34665
34292
33867
33424
32898
32408
32040
31772
31521
31198
30863
30445
30096
29788
29625
29595
29596
29641
29629
29620
29537
29430
29363
29271
29199
29124
29049
28982
28947
28932
28955
28977
28994
29049
29064
29065
29050
29017
28947
28903
28988
29066
29076
29050
29070
29230
29370
29454
29496
29508
29537
29631
29694
29716
29754
29755
29695
29503
29355
29347
29470
29701
29835
29853
29810
29654
29494
29435
29530
29722
29839
29848
29826
29818
29886
29979
30116
30184
30240
30248
30196
30157
30006
29833
29756
29703
29716
29782
29856
29965
29978
29971
29951
29952
29954
29971
30047
30115
30163
30147
30100
30014
29917
29846
29794
29788
29789
29842
29916
30019
30154
30239
30253
30180
30037
29976
29973
30037
30087
30125
30186
30251
30331
30375
30385
30444
30482
30500
30506
30477
30452
30501
30632
30720
30701
30643
30488
30407
30409
30447
30444
30366
30326
30324
30359
30377
30364
30395
30460
30630
30795
30955
31094
31122
31055
30898
30785
30730
30775
30917
31051
31128
31182
31134
31103
31065
31015
30955
30817
30641
30452
30424
30537
30687
30823
30927
30953
30980
31007
31071
31182
31303
31405
31453
31403
31312
31183
31079
31065
31077
31148
31259
31402
31573
31789
32036
32350
32630
32840
33049
33199
33289
33330
33370
33468
33591
33715
33791
33931
34098
34240
34329
34328
34345
34291
34236
34095
33880
33670
33400
33138
32818
32447
32111
31816
31530
31277
31069
30936
30829
30773
30733
30705
30728
30697
30613
30505
30415
30290
30186
30193
30273
30365
30422
30392
30290
30169
30131
30176
30182
30194
30271
30350
30344
30219
30146
30116
30222
30471
30842
31280
31834
32928
34767
37314
40326
43700
47524
51779
56361
60840
63703
63904
63875
63654
62260
57887
51165
43440
36044
29854
25394
22805
21716
21719
22296
23057
23889
24750
25443
26123
26786
27428
28089
28663
29019
29196
29300
29313
29383
29410
29448
29445
29463
29519
29561
29626
29688
29771
29859
29900
29939
29915
29856
29862
29932
30011
30087
30149
30193
30289
30363
30482
30626
30759
30895
31033
31144
31247
31330
31355
31370
31336
31332
31325
31285
31256
31181
31151
31137
31214
31368
31504
31690
31827
32020
32205
32316
32453
32528
32621
32715
32879
33070
33163
33233
33254
33325
33431
33635
33892
34178
34404
34564
34644
34698
34830
35124
35555
36019
36404
36635
36724
36765
36827
36962
37098
37234
37367
37526
37725
37891
37972
38030
38149
38304
38420
38482
38412
38347
38286
38249
38205
38006
37766
37406
37096
36824
36534
36257
35884
35531
35190
34812
34386
33781
33195
32676
32182
31721
31320
31030
30796
30603
30429
30256
30097
29906
29726
29600
29502
29385
29247
29070
28918
28757
28683
28684
28725
28866
29012
29134
29167
29108
29063
29016
29052
29080
29120
29094
29065
28968
28858
28793
28761
28867
29068
29320
29607
29715
29744
29651
29509
29469
29444
29474
29533
29622
29661
29697
29688
29657
29655
29698
29762
29818
29822
29792
29784
29756
29662
29602
29521
29483
29492
29556
29628
29685
29708
29712
29749
29699
29605
29457
29435
29511
29633
29719
29781
29844
29990
30096
30156
30089
30007
29931
29851
29791
29709
29637
29654
29721
29843
29918
29960
29947
29957
30012
30117
30213
30311
30355
30350
30245
30138
30098
30062
30070
30058
30077
30126
30157
30185
30180
30186
30183
30189
30213
30244
30308
30369
30500
30577
30651
30694
30666
30574
30405
30281
30217
30198
30234
30251
30316
30412
30478
30540
30623
30694
30714
30684
30626
30600
30609
30643
30679
30695
30697
30732
30773
30826
30889
30920
30885
30828
30780
30736
30673
30650
30609
30580
30542
30541
30602
30604
30642
30731
30873
31059
31124
31207
31241
31259
31236
31141
31055
30918
30836
30869
30941
31045
31079
31141
31198
31275
31321
31314
31241
31124
31052
30943
30888
30893
31009
31249
31622
32049
32487
32905
33260
33558
33780
33911
33886
33761
33688
33714
33840
33961
34082
34201
34395
34696
34885
34918
34820
34675
34491
34229
33903
33487
33131
32782
32447
32243
32127
32077
32023
31973
31919
31849
31777
31625
31411
31207
31050
30891
30758
30610
30484
30467
30506
30643
30786
30883
30953
31003
30999
30946
30885
30814
30759
30753
30803
30800
30728
30604
30433
30357
30357
30470
30731
31054
31434
32266
33851
36190
38934
42135
45872
50218
55029
59848
63582
63942
63933
63826
63376
60582
54702
47238
39607
32891
27704
24308
22509
22022
22400
23108
24023
25034
25952
26847
27640
28348
28899
29203
29355
29349
29304
29302
29312
29339
29397
29441
29507
29636
29807
30028
30314
30510
30614
30636
30570
30555
30632
30731
30873
30999
31065
31077
31020
30919
30780
30783
30849
31002
31136
31299
31465
31656
31788
31853
31882
31874
31864
31854
31842
31833
31886
31952
32033
32058
32109
32182
32273
32436
32631
32884
33109
33264
33361
33404
33452
33552
33662
33778
33869
34024
34233
34401
34615
34814
35027
35266
35439
35618
35831
36085
36306
36435
36595
36776
37042
37328
37632
37896
38059
38205
38311
38394
38512
38685
38906
39121
39328
39493
39608
39690
39717
39735
39784
39878
39962
39965
39864
39662
39406
39058
38662
38250
37795
37311
36848
36350
35849
35320
34776
34272
33798
33392
33038
32715
32462
32203
31950
31689
31403
31187
31009
30852
30645
30451
30304
30195
30128
30016
30013
30014
30018
30053
30064
30087
30019
29955
29908
29883
29851
29850
29888
29945
30004
29997
30000
30010
30006
30012
30053
30117
30170
30222
30283
30332
30360
30378
30314
30251
30281
30344
30433
30537
30689
30827
30941
31015
30986
30888
30792
30766
30804
30862
30990
31054
31053
31052
31030
31001
30917
30791
30640
30536
30572
30755
30960
31119
31312
31513
31693
31785
31723
31598
31450
31369
31348
31375
31434
31497
31525
31476
31366
31283
31256
31273
31279
31255
31273
31333
31337
31373
31432
31474
31504
31499
31480
31442
31405
31389
31402
31462
31497
31518
31508
31482
31441
31445
31507
31594
31688
31753
31824
31896
31951
31974
31977
31947
31848
31790
31731
31665
31636
31651
31700
31768
31855
31913
32011
32073
32076
32049
32061
32059
32044
32048
32047
32097
32145
32143
32152
32144
32170
32185
32184
32190
32143
32121
32095
32123
32122
32174
32216
32236
32209
32139
32046
32007
31968
31934
31944
32050
32195
32332
32428
32493
32457
32369
32306
32312
32408
32525
32653
32774
32863
32910
32857
32847
32824
32801
32839
32943
33122
33325
33501
33678
33862
34042
34239
34458
34629
34790
34942
35062
35152
35204
35231
35189
35263
35469
35659
35874
36037
36172
36178
36043
35734
35295
34869
34502
34191
33935
33741
33625
33557
33518
33408
33273
33123
32939
32694
32466
32244
32097
32013
31975
31990
32007
31966
31891
31826
31722
31654
31688
31722
31797
31799
31717
31605
31531
31601
31717
31845
31906
31847
31817
31786
31917
32185
32450
32849
33798
35618
38180
41210
44706
48650
53028
57694
62250
63925
63997
63989
63920
63583
60946
55024
47411
39737
33097
28112
24930
23290
22987
23356
24157
25078
26121
27057
27968
28863
29639
30279
30732
31055
31192
31178
31049
30885
30829
30856
30978
31098
31203
31280
31285
31181
31056
30982
31039
31242
31599
31975
32266
32431
32450
32367
32241
32121
32083
32166
32306
32445
32498
32458
32375
32303
32239
32199
32224
32316
32465
32664
32905
33122
33233
33226
33209
33265
33330
33394
33433
33499
33645
33792
33952
34145
34314
34492
34583
34588
34530
34498
34546
34704
34958
35195
35393
35623
35874
36174
36486
36766
37015
37230
37416
37611
37749
37888
38076
38247
38351
38385
38353
38358
38459
38643
38929
39226
39508
39741
39900
39894
39822
39708
39661
39743
39988
40297
40572
40720
40707
40620
40452
40151
39745
39324
38881
38430
37948
37469
36976
36505
36006
35515
35028
34498
34017
33606
33249
32965
32701
32472
32278
32057
31811
31539
31348
31240
31185
31183
31219
31200
31188
31154
31129
31085
31064
31038
30978
30893
30855
30844
30866
30920
30987
31070
31171
31208
31211
31182
31175
31223
31230
31209
31142
31079
31053
31039
31047
31022
31047
31072
31142
31223
31315
31391
31497
31629
31735
31822
31862
31886
31939
32005
32103
32031
31845
31601
31411
31334
31350
31528
31753
31978
32185
32233
32131
31887
31625
31357
31196
31184
31328
31622
31945
32224
32382
32381
32277
32172
32084
32011
31980
31946
31963
31997
32070
32135
32146
32078
31962
31886
31843
31823
31856
31885
31856
31841
31849
31856
31912
32013
32134
32181
32151
32032
31840
31704
31656
31696
31820
31990
32209
32414
32540
32554
32435
32260
32016
31885
31817
31732
31626
31558
31658
31783
31849
31924
32045
32223
32370
32554
32658
32722
32733
32688
32604
32530
32517
32508
32472
32436
32369
32281
32288
32401
32593
32815
33042
33357
33690
33987
34197
34288
34288
34268
34392
34632
34874
35059
35141
35220
35293
35494
35723
35923
36008
35927
35732
35429
34999
34543
34175
33910
33705
33492
33313
33204
33175
33162
33094
32939
32764
32531
32239
31900
31641
31448
31390
31453
31541
31669
31696
31631
31473
31400
31368
31338
31332
31358
31438
31559
31663
31724
31727
31779
31791
31748
31574
31321
31127
31075
31264
31575
31967
32534
33674
35587
38216
41283
44770
48739
53094
57537
61724
63790
63896
63848
63658
62355
58036
51533
44111
36999
31017
26640
23942
22748
22593
23047
23779
24797
25845
26920
27857
28730
29319
29779
30094
30309
30408
30436
30466
30444
30438
30411
30366
30384
30484
30648
30840
31037
31154
31285
31370
31414
31428
31368
31301
31190
31179
31251
31299
31317
31350
31440
31559
31680
31775
31842
31918
32017
32116
32205
32337
32469
32588
32638
32619
32605
32543
32521
32530
32631
32754
32907
33075
33225
33365
33535
33658
33690
33619
33518
33497
33573
33784
34083
34385
34662
34891
35078
35298
35475
35636
35798
35980
36214
36409
36563
36724
36885
37037
37148
37222
37310
37375
37502
37661
37847
38109
38405
38726
39053
39245
39338
39328
39327
39347
39373
39427
39418
39367
39268
39163
39029
38849
38608
38313
37964
37554
37084
36598
36128
35653
35152
34706
34290
33967
33649
33288
32877
32421
32070
31839
31652
31511
31342
31169
30956
30723
30496
30303
30155
30045
29968
29925
29899
29834
29746
29632
29522
29460
29434
29419
29379
29318
29248
29211
29282
29392
29498
29588
29640
29666
29625
29605
29560
29607
29664
29718
29754
29771
29796
29792
29791
29809
29841
29965
30126
30253
30358
30322
30192
29964
29774
29661
29696
29854
30042
30297
30470
30531
30613
30605
30531
30420
30334
30287
30233
30170
30073
29958
29894
29860
29909
29966
29978
30068
30165
30255
30294
30289
30289
30347
30414
30445
30468
30423
30328
30243
30134
30086
30054
30023
30036
30104
30173
30176
30170
30156
30176
30226
30187
30088
29940
29845
29903
30027
30202
30324
30375
30419
30448
30511
30594
30613
30605
30533
30420
30246
30015
29840
29812
29849
29960
30059
30067
30023
30035
30185
30387
30633
30754
30771
30675
30588
30493
30436
30416
30388
30372
30342
30376
30455
30586
30673
30722
30743
30699
30612
30533
30501
30549
30664
30767
30886
30878
30840
30884
31089
31476
31915
32274
32504
32701
32908
33138
33358
33524
33650
33731
33823
34019
34323
34533
34587
34531
34334
34051
33656
33174
32694
32322
32004
31783
31557
31356
31209
31075
30980
30824
30700
30601
30434
30277
30087
29906
29750
29651
29642
29631
29683
29677
29699
29706
29707
29718
29815
29913
29982
30055
30083
30014
29910
29792
29699
29625
29479
29328
29261
29280
29433
29707
30088
30697
31816
33734
36322
39298
42653
46449
50714
55224
59600
62902
63781
63716
63171
60876
56056
49466
42181
35313
29602
25363
22787
21438
21162
21485
22103
22931
23823
24808
25715
26638
27343
27941
28359
28625
28696
28688
28612
28539
28512
28500
28585
28709
28822
28935
29049
29083
29119
29196
29274
29369
29450
29499
29536
29537
29545
29637
29745
29857
29921
29943
29872
29768
29696
29594
29663
29837
30152
30462
30743
30952
31065
31084
31066
31015
30987
30908
30855
30796
30825
30949
31119
31323
31541
31767
31914
32041
32137
32178
32212
32310
32446
32554
32703
32861
33069
33292
33503
33706
33892
34094
34257
34432
34597
34801
35036
35237
35471
35725
35982
36210
36392
36549
36623
36721
36789
36849
36880
36851
36863
36941
37099
37297
37484
37662
37781
37910
38007
38078
38055
37966
37803
37615
37419
37162
36853
36458
36056
35618
35206
34740
34246
33748
33300
32918
32528
32188
31824
31443
31095
30693
30323
30064
29957
29952
29947
29936
29851
29773
29654
29510
29443
29339
29248
29174
29144
29168
29146
29103
29045
28980
28889
28823
28777
28733
28692
28673
28660
28667
28759
28941
29134
29345
29535
29657
29659
29592
29447
29313
29110
28927
28815
28858
29049
29243
29455
29647
29769
29836
29872
29841
29740
29693
29620
29555
29569
29572
29636
29691
29750
29783
29780
29752
29695
29694
29771
29843
29902
29937
29954
29960
29954
29928
29864
29758
29618
29459
29374
29374
29431
29512
29630
29719
29764
29827
29909
29979
30095
30152
30114
29984
29948
29938
29918
29938
29866
29747
29625
29552
29618
29751
29959
30174
30298
30309
30193
30094
30012
29977
30007
30027
30042
30022
30062
30118
30166
30205
30219
30284
30401
30499
30585
30600
30513
30439
30419
30408
30371
30351
30291
30222
30184
30157
30142
30168
30189
30180
30178
30214
30259
30277
30254
30316
30492
30669
30813
30941
31020
31020
30931
30860
30820
30815
30818
30795
30786
30728
30693
30641
30584
30535
30490
30411
30312
30312
30439
30704
31060
31408
31799
32152
32400
32557
32672
32815
32924
33002
33109
33270
33364
33378
33374
33434
33631
34094
34644
35058
35229
35053
34645
34160
33689
33355
33128
32952
32779
32602
32496
32372
32224
31973
31689
31420
31197
31039
30920
30831
30816
30831
30910
30952
30928
30821
30667
30533
30426
30371
30327
30405
30584
30771
30949
31056
31078
31109
31134
31071
30978
30836
30664
30404
30225
30226
30491
30954
31442
32183
33512
35613
38398
41576
45146
49057
53305
57650
61540
63722
63875
63819
63426
61247
56331
49698
42526
35784
30350
26410
24056
23056
23031
23406
23935
24375
24854
25297
25818
26358
26993
27649
28314
28890
29263
29561
29842
30113
30351
30587
30796
31001
31119
31218
31246
31205
31115
31065
31056
31011
30992
31015
31090
31210
31304
31354
31441
31491
31552
31585
31688
31733
31943
32120
32198
32215
32137
32043
32078
32193
32387
32578
32694
32703
32670
32640
32589
32597
32694
32898
33102
33319
33515
33625
33656
33648
33674
33731
33759
33833
33974
34179
34438
34712
34980
35236
35494
35778
35984
36169
36324
36457
36619
36745
36903
37021
37122
37219
37315
37467
37563
37666
37758
37971
38282
38504
38615
38666
38755
38816
38844
38919
39043
39264
39472
39635
39681
39619
39463
39284
39055
38802
38548
38335
38145
37930
37708
37368
36923
36391
35764
35187
34721
34312
33929
33624
33393
33127
32832
32471
32167
31878
31621
31338
31079
30963
30874
30838
30849
30824
30825
30746
30666
30619
30595
30568
30536
30548
30575
30577
30528
30438
30381
30308
30239
30249
30356
30496
30696
30871
31055
31149
31079
30981
30863
30796
30718
30722
30760
30822
30876
30929
31002
31085
31194
31314
31425
31524
31595
31579
31538
31526
31603
31659
31700
31660
31558
31451
31329
31270
31301
31418
31517
31586
31608
31573
31591
31593
31565
31499
31419
31373
31350
31340
31325
31307
31274
31199
31137
31130
31132
31179
31266
31310
31331
31273
31233
31184
31198
31251
31280
31317
31304
31256
31235
31271
31375
31416
31431
31386
31251
31146
31060
31017
31066
31210
31420
31569
31690
31757
31756
31681
31600
31563
31592
31595
31621
31661
31707
31693
31660
31644
31651
31670
31773
31862
31969
32082
32187
32185
32094
31966
31878
31882
31794
31736
31693
31672
31693
31705
31705
31687
31706
31784
31904
32022
32087
32081
32010
31997
32005
32092
32297
32471
32654
32729
32689
32630
32561
32452
32384
32384
32442
32527
32641
32769
32831
32844
32840
32860
32966
33140
33494
33862
34138
34322
34477
34623
34656
34654
34652
34820
35219
35705
36112
36273
36226
35969
35529
35013
34453
33980
33622
33356
33218
33130
33154
33184
33155
33037
32792
32564
32363
32224
32092
31913
31750
31587
31463
31438
31444
31497
31531
31564
31601
31574
31475
31382
31265
31146
31079
31084
31199
31277
31244
31186
31169
31160
31128
31058
31027
31178
31639
32281
32979
34037
35803
38373
41575
45023
48722
52562
56399
59939
62666
63665
63668
63285
61471
57165
51069
44503
38384
33158
29086
26268
24539
23770
23753
24145
24531
24820
25023
25262
25656
26123
26585
27070
27695
28430
29133
29743
30250
30554
30702
30730
30692
30671
30631
30656
30702
30804
30938
31044
31109
31147
31156
31144
31170
31259
31399
31533
31633
31654
31678
31666
31665
31732
31841
31955
32078
32180
32237
32248
32227
32202
32173
32151
32244
32368
32561
32822
33033
33228
33424
33579
33727
33812
33852
33825
33768
33712
33672
33648
33661
33750
33922
34098
34346
34641
34982
35312
35580
35769
35882
35942
35987
36026
36119
36266
36416
36561
36691
36852
37053
37276
37459
37642
37832
38022
38171
38288
38351
38368
38326
38293
38277
38339
38433
38520
38585
38629
38639
38602
38579
38559
38450
38276
38025
37665
37269
36817
36417
36023
35584
35107
34609
34170
33793
33460
33177
32864
32513
32144
31766
31521
31381
31308
31212
31083
30959
30809
30667
30497
30308
30194
30057
29941
29843
29757
29673
29670
29710
29751
29754
29720
29666
29654
29798
30089
30363
30578
30738
30834
30877
30822
30733
30623
30472
30386
30387
30436
30509
30611
30671
30597
30409
30241
30125
30167
30280
30469
30731
30946
31121
31243
31272
31204
31092
31029
30923
30802
30703
30623
30547
30519
30569
30663
30805
30934
31046
31058
31078
31086
31052
30952
30902
30867
30892
30937
30979
30952
30935
30844
30766
30754
30793
30865
30987
30961
30772
30515
30247
30136
30243
30500
30876
31082
31177
31125
31154
31244
31306
31364
31361
31331
31341
31375
31385
31414
31429
31379
31265
31121
31067
31077
31179
31306
31336
31322
31260
31207
31246
31334
31338
31267
31149
31086
31088
31172
31217
31216
31213
31179
31221
31376
31532
31759
31935
32025
31966
31780
31519
31169
30833
30600
30607
30931
31336
31798
32172
32388
32465
32393
32209
31989
31862
31809
31825
31819
31857
31943
32006
32107
32093
31956
31832
31732
31701
31756
31849
31967
32134
32283
32408
32472
32502
32482
32475
32496
32463
32461
32478
32570
32736
32975
33322
33650
33874
33925
33813
33634
33550
33661
33931
34238
34495
34702
34953
35283
35663
35938
36069
36037
35823
35439
34851
34267
33810
33567
33354
33111
32938
32802
32776
32888
32969
32963
32790
32489
32202
31913
31713
31512
31261
31051
30927
30894
30915
30892
30928
30994
31116
31203
31202
31192
31243
31320
31416
31486
31517
31498
31439
31347
31177
30940
30785
30730
30822
31139
31638
32251
33236
34957
37393
40217
43419
47089
51319
55987
60626
63725
63940
63943
63829
63206
60016
54027
46530
39026
32582
27712
24649
23054
22667
22941
23438
24084
24823
25586
26316
27049
27731
28438
29069
29575
29944
30151
30255
30246
30180
30084
29983
30120
30359
30612
30689
30622
30546
30569
30698
30879
31070
31257
31368
31395
31372
31345
31365
31343
31213
31040
30954
31078
31380
31767
32124
32339
32496
32588
32627
32606
32505
32339
32120
31947
31884
31971
32184
32410
32643
32863
33089
33257
33361
33444
33551
33688
33781
33809
33684
33541
33470
33495
33639
33887
34259
34652
34995
35236
35393
35439
35446
35528
35699
35932
36164
36439
36737
37116
37564
37937
38187
38278
38309
38295
38254
38279
38260
38257
38275
38279
38309
38263
38284
38365
38569
38901
39253
39509
39573
39498
39364
39214
39016
38836
38629
38312
37860
37296
36632
35917
35308
34846
34548
34384
34237
34038
33748
33378
32948
32453
31942
31493
31148
30951
30883
30964
31113
31212
31202
31115
30945
30685
30399
30202
30149
30088
30022
29958
29930
29969
30121
30284
30374
30379
30314
30259
30249
30310
30437
30502
30477
30369
30263
30230
30250
30311
30359
30449
30510
30468
30419
30406
30448
30574
30711
30816
30914
30962
31005
30952
30826
30687
30537
30533
30545
30636
30754
30865
31019
31089
31198
31259
31299
31323
31328
31339
31339
31308
31196
31123
31072
31063
30986
30852
30673
30436
30253
30180
30236
30452
30821
31204
31557
31777
31781
31605
31363
31082
30893
30827
30939
31121
31422
31703
31849
31854
31773
31633
31405
31258
31150
31049
30903
30763
30734
30812
30936
31116
31282
31440
31455
31445
31468
31527
31532
31492
31446
31421
31436
31452
31507
31563
31500
31327
31074
30861
30802
30921
31105
31309
31580
31815
31975
32075
32038
31897
31666
31388
31173
31076
31093
31232
31473
31748
31942
32017
32039
31966
31829
31697
31495
31317
31125
31079
31211
31500
31788
32007
32175
32253
32250
32168
32030
31880
31752
31706
31664
31678
31659
31588
31435
31312
31364
31562
31885
32178
32379
32469
32475
32432
32316
32242
32215
32166
32016
31832
31689
31688
31769
31919
32141
32364
32654
32969
33356
33787
34120
34299
34289
34169
34049
34118
34313
34625
34923
35159
35289
35447
35626
35809
35877
35847
35779
35669
35432
35099
34762
34388
34085
33731
33319
32969
32749
32651
32622
32618
32635
32604
32528
32443
32339
32215
32089
31861
31642
31452
31348
31280
31169
31146
31211
31316
31401
31446
31364
31139
31019
31084
31370
31717
31971
32047
31975
31709
31302
31004
30773
30697
30779
31047
31684
33099
35381
38231
41338
44749
48504
52648
57067
61313
63758
63896
63861
63638
62357
58189
51775
44519
37527
31574
27117
24342
23008
22790
23150
23871
24809
25740
26730
27632
28406
28992
29363
29592
29781
30011
30241
30220
30120
30059
30155
30393
30697
30905
30954
30931
30823
30700
30619
30479
30358
30289
30317
30436
30639
30854
31051
31189
31253
31245
31217
31256
31328
31333
31265
31203
31191
31243
31256
31278
31380
31548
31782
31945
32047
32181
32349
32562
32741
32817
32910
32989
33031
33026
32959
32856
32739
32673
32756
32918
33083
33225
33351
33437
33585
33820
34194
34648
35072
35413
35631
35698
35654
35589
35552
35487
35462
35594
35887
36272
36718
37112
37430
37651
37776
37883
37963
37991
37936
37879
37844
37759
37719
37785
38090
38509
38869
39006
38953
38868
38815
38802
38799
38680
38526
38192
37692
37113
36589
36180
35823
35464
35003
34438
33805
33177
32743
32563
32571
32527
32372
32180
31985
31779
31467
31150
30923
30735
30616
30497
30391
30285
30177
30026
29960
29948
29910
29787
29633
29366
29198
29240
29505
29912
30285
30547
30675
30635
30540
30391
30291
30176
30039
29996
29964
29976
29982
30056
30089
30087
30103
30092
30125
30309
30510
30715
30810
30762
30697
30678
30676
30664
30472
30207
29911
29670
29564
29775
30254
30746
31019
31026
30991
30953
30929
30954
31033
31150
31183
31082
30958
30856
30860
30891
30946
30999
31025
31021
30952
30887
30783
30750
30756
30706
30578
30383
30300
30238
30215
30190
30195
30288
30451
30716
30882
30862
30782
30773
30924
31080
31243
31340
31465
31572
31654
31622
31508
31409
31251
31079
30888
30699
30626
30581
30660
30698
30769
30736
30753
30846
30956
31077
31113
31068
30964
30858
30793
30779
30832
30904
30972
30995
30933
30868
30816
30859
30865
30854
30881
30927
30937
30924
30847
30843
30898
30954
31012
31077
31216
31372
31525
31694
31820
31920
31902
31786
31664
31525
31432
31370
31402
31356
31248
31178
31086
31078
31057
30985
30868
30799
30823
30980
31192
31450
31688
31834
31877
31833
31778
31751
31740
31755
31763
31671
31535
31439
31404
31481
31534
31504
31436
31271
31078
30982
31016
31177
31376
31644
31918
32210
32443
32650
32807
32918
33037
33181
33373
33613
33855
34073
34219
34321
34372
34353
34263
34177
34235
34371
34504
34586
34597
34627
34601
34466
34278
34031
33732
33344
32911
32532
32246
32123
32080
32026
31975
31913
31773
31544
31313
31132
31010
30893
30757
30591
30424
30314
30289
30407
30653
30906
31088
31132
31053
30902
30799
30701
30659
30618
30565
30532
30481
30364
30182
30012
29915
29984
30124
30295
30580
31335
32990
35353
38205
41470
45182
49345
53785
58256
62030
63729
63788
63539
62232
58481
52451
45320
38325
32306
27616
24406
22624
21801
21616
21850
22587
23666
24944
26226
27367
28284
28879
29139
29271
29369
29368
29251
29065
28864
28752
28811
28966
29110
29259
29389
29562
29759
29947
29961
29757
29474
29369
29460
29693
29892
30138
30344
30537
30719
30803
30842
30760
30650
30533
30371
30298
30280
30284
30319
30335
30394
30500
30581
30573
30631
30846
31177
31572
31968
32266
32370
32323
32223
32186
32201
32174
32047
31962
32015
32168
32405
32721
32986
33183
33318
33359
33373
33428
33482
33601
33794
34124
34549
34937
35303
35519
35650
35719
35667
35633
35638
35875
36314
36772
37200
37447
37589
37653
37658
37670
37699
37784
37894
38024
38196
38353
38372
38367
38356
38329
38236
38089
37919
37631
37259
36841
36485
36218
35973
35684
35266
34779
34232
33742
33281
32947
32721
32467
32202
31775
31309
30948
30635
30414
30183
29961
29777
29722
29821
29943
30044
30178
30248
30211
30054
29745
29332
29017
28830
28788
28870
29073
29312
29499
29625
29630
29562
29502
29496
29493
29461
29452
29397
29322
29269
29310
29344
29381
29501
29754
30018
30219
30321
30284
30249
30237
30125
29940
29700
29532
29570
29695
29847
29914
29959
29914
29903
29985
30114
30189
30246
30338
30448
30599
30693
30759
30741
30705
30676
30573
30433
30315
30321
30417
30458
30489
30486
30514
30550
30631
30637
30631
30612
30573
30509
30312
29974
29625
29434
29643
30011
30394
30683
30827
30912
30923
30947
30886
30830
30848
30883
30938
30890
30774
30541
30282
30101
30122
30356
30683
30934
31070
31116
31115
31085
31080
31070
31046
30966
30934
30936
30911
30815
30725
30680
30714
30773
30870
30979
31074
31219
31374
31467
31495
31464
31454
31392
31319
31236
31065
30931
30815
30778
30841
30967
31137
31273
31368
31403
31331
31278
31314
31382
31463
31503
31512
31469
31377
31270
31149
31120
31137
31079
31002
30956
31065
31281
31556
31821
31996
32136
32118
32012
31898
31790
31693
31656
31657
31659
31661
31684
31699
31753
31678
31545
31467
31410
31397
31370
31438
31534
31688
31835
31943
32064
32243
32388
32503
32599
32751
32978
33263
33539
33834
34176
34440
34536
34537
34518
34586
34779
34982
35115
35138
35063
34834
34482
34048
33683
33442
33373
33290
33126
32927
32631
32266
31922
31648
31386
31150
31052
31097
31277
31529
31688
31686
31624
31505
31426
31323
31300
31358
31375
31351
31209
30992
30882
30960
31182
31448
31695
31735
31602
31377
31016
30503
29995
29744
29874
30423
31187
32195
33448
35280
37787
40828
44076
47591
51399
55390
59259
62418
63743
63800
63643
62605
58889
52960
46249
39708
33946
29489
26477
24745
23943
23845
24090
24349
24421
24446
24630
24914
25244
25651
26168
26847
27398
27887
28242
28650
29078
29573
30043
30343
30450
30473
30350
30108
29918
29980
30233
30617
30985
31314
31587
31658
31528
31324
31152
31052
31022
31098
31205
31159
31085
31157
31334
31553
31715
31824
31858
31851
31835
31839
31923
32108
32351
32531
32629
32726
32759
32763
32727
32721
32728
32763
32845
32900
33021
33122
33173
33227
33322
33484
33721
33898
33901
33869
33884
34036
34389
34780
35141
35504
35803
36007
36146
36275
36369
36427
36436
36417
36426
36516
36747
37125
37523
37823
38015
38060
37977
37810
37673
37688
37801
38036
38277
38499
38651
38664
38666
38593
38500
38328
38152
37931
37657
37392
37052
36629
36171
35749
35392
34983
34535
34093
33713
33335
32921
32472
32036
31699
31442
31206
31068
30947
30791
30597
30345
30123
30016
29975
29977
29988
29976
29890
29767
29687
29569
29563
29626
29690
29721
29706
29702
29628
29556
29631
29758
29846
29885
29850
29713
29600
29628
29817
30044
30161
30206
30188
30222
30264
30273
30249
30186
30131
30090
30130
30256
30382
30470
30483
30430
30306
30173
30030
29947
29856
29848
29973
30128
30302
30436
30495
30485
30386
30264
30197
30200
30222
30278
30306
30294
30254
30220
30246
30286
30308
30342
30323
30301
30235
30200
30168
30148
30112
30057
30003
29946
29910
29830
29828
29867
29958
30138
30348
30616
30742
30694
30470
30216
30083
30056
30122
30240
30364
30428
30375
30248
30158
30167
30216
30232
30202
30238
30350
30494
30665
30768
30859
30837
30728
30498
30291
30187
30170
30180
30253
30382
30575
30752
30867
30937
30945
30924
30916
30954
30939
30917
30894
30811
30701
30595
30482
30493
30580
30714
30824
30866
30825
30796
30776
30808
30792
30822
30875
30955
30981
30941
30953
31033
31172
31278
31348
31370
31320
31299
31312
31424
31573
31765
31925
32051
32205
32251
32237
32176
32116
32094
32116
32197
32405
32768
33212
33629
33950
34174
34345
34559
34831
35091
35245
35259
35081
34736
34211
33622
33032
32580
32343
32302
32340
32407
32417
32372
32283
32035
31718
31320
30939
30633
30424
30371
30380
30421
30411
30410
30481
30558
30624
30649
30699
30811
30906
30986
31013
30894
30724
30592
30489
30427
30456
30512
30570
30532
30361
30120
30022
30242
30686
31278
32232
33769
36129
39090
42433
46152
50175
54382
58635
62397
63862
63920
63840
63342
60529
55018
47999
40647
34051
28838
25215
23252
22522
22500
22927
23382
23879
24438
25042
25634
26299
26983
27674
28347
28886
29219
29406
29450
29439
29408
29402
29411
29447
29434
29333
29178
28983
28876
29010
29308
29807
30304
30703
30936
30917
30782
30683
30625
30501
30432
30482
30635
30824
30988
31150
31368
31565
31811
31971
32070
31995
31823
31624
31471
31361
31262
31152
31091
31179
31470
31984
32537
33033
33376
33592
33732
33798
33786
33657
33498
33355
33267
33226
33264
33369
33492
33673
33953
34370
34817
35177
35451
35640
35824
36086
36426
36738
36970
37199
37382
37513
37651
37751
37794
37707
37492
37271
37147
37182
37379
37755
38201
38694
39109
39379
39443
39312
39104
38872
38589
38229
37816
37443
37114
36891
36796
36817
36796
36675
36491
36144
35627
34983
34286
33703
33258
32910
32505
32093
31585
31040
30540
30216
30056
30006
30115
30314
30531
30605
30538
30432
30314
30157
29923
29603
29298
29143
29210
29407
29619
29663
29509
29311
29179
29140
29178
29078
28954
28925
29151
29712
30380
30983
31319
31458
31390
31132
30719
30231
29845
29702
29791
30008
30299
30481
30599
30602
30545
30452
30328
30191
30174
30184
30168
30020
29880
29887
30164
30551
30864
31030
31062
30972
30847
30759
30695
30658
30629
30623
30672
30807
30938
30937
30861
30715
30668
30692
30783
30830
30867
30877
30837
30772
30737
30702
30750
30758
30837
30917
30943
30836
30779
30778
30870
31019
31198
31363
31450
31402
31239
31036
30853
30689
30538
30539
30740
31067
31354
31479
31463
31428
31435
31507
31553
31570
31595
31543
31438
31273
31069
30849
30678
30633
30733
30943
31205
31520
31787
31944
32013
31897
31659
31396
31242
31188
31164
31157
31180
31254
31307
31323
31315
31270
31251
31216
31197
31200
31220
31254
31275
31310
31305
31340
31380
31432
31421
31426
31474
31562
31656
31564
31406
31270
31188
31205
31313
31524
31711
31772
31732
31658
31536
31456
31452
31489
31524
31507
31500
31564
31640
31686
31533
31341
31134
31055
31085
31247
31558
31884
32087
32146
32093
32043
32148
32318
32508
32711
32898
33087
33260
33401
33529
33594
33637
33584
33506
33500
33531
33667
33897
34320
34868
35274
35472
35523
35435
35194
34754
34165
33616
33203
32939
32846
32812
32763
32674
32555
32419
32249
32035
31734
31384
31070
30765
30423
30175
30059
30095
30249
30511
30865
31141
31400
31597
31655
31544
31297
31017
30692
30436
30433
30640
30902
31155
31329
31309
31074
30731
30392
30303
30438
30788
31183
31934
33385
35545
38203
41189
44654
48555
52834
57351
61495
63746
63858
63758
63290
60809
55641
48760
41530
34970
29685
25925
23694
22667
22568
23036
23687
24498
25277
26070
26940
27648
28191
28504
28749
28907
29074
29320
29656
30002
30278
30428
30405
30253
30008
29780
29659
29653
29723
29703
29632
29542
29631
29825
30058
30348
30592
30842
31042
31061
31048
30952
30926
30873
30752
30692
30703
30830
30944
31066
31181
31344
31525
31750
31911
31979
31893
31657
31446
31382
31518
31879
32252
32542
32765
32868
32939
33025
33120
33194
33227
33213
33213
33215
33247
33320
33439
33628
33846
34109
34318
34582
34885
35146
35442
35552
35621
35762
35955
36167
36267
36448
36673
36965
37307
37701
38080
38279
38326
38241
38133
38037
38053
38182
38368
38578
38767
38927
39018
38941
38843
38748
38731
38722
38672
38478
38039
37528
37126
36813
36512
36241
35908
35493
34913
34261
33704
33176
32741
32252
31825
31507
31286
31187
31083
31059
30960
30697
30229
29759
29521
29607
29950
30282
30498
30583
30537
30476
30366
30240
30093
29946
29810
29635
29428
29179
29052
29039
29140
29362
29507
29534
29457
29381
29383
29512
29661
29844
30112
30340
30499
30632
30695
30791
30862
30916
30830
30732
30497
30211
29833
29574
29598
29759
30009
30242
30343
30371
30351
30348
30446
30635
30762
30829
30735
30548
30372
30311
30413
30667
31006
31322
31529
31671
31737
31695
31556
31389
31231
31076
30920
30729
30496
30377
30346
30432
30669
30881
31055
31219
31430
31610
31644
31620
31510
31387
31277
31093
30887
30645
30432
30381
30477
30633
30818
31082
31369
31511
31453
31270
31090
31025
31113
31240
31343
31310
31145
31072
31101
31296
31589
31781
31829
31758
31480
31148
30964
31038
31282
31594
31833
31916
31822
31620
31385
31325
31404
31591
31777
31888
32015
32006
31838
31538
31274
31179
31214
31318
31340
31325
31389
31566
31816
31885
31826
31709
31643
31617
31593
31600
31694
31872
32097
32316
32427
32458
32379
32247
32118
31982
31911
31970
32036
32087
32029
31944
31819
31718
31661
31636
31538
31527
31657
31833
32019
32213
32336
32388
32388
32373
32343
32308
32240
32160
32088
31948
31874
31916
32025
31945
31698
31567
31756
32132
32506
32814
32954
32958
32885
32780
32744
32794
32810
32753
32661
32681
32860
33182
33562
33893
34222
34454
34619
34762
34845
34845
34729
34552
34561
34777
35095
35391
35614
35681
35539
35182
34750
34349
34004
33677
33353
33083
32841
32666
32457
32277
32211
32249
32272
32325
32319
32209
32066
31905
31691
31414
31162
30969
30869
30960
31155
31450
31750
31852
31813
31509
31080
30718
30566
30671
30931
31243
31435
31464
31466
31490
31525
31617
31721
31843
32094
32853
34393
36654
39355
42512
46189
50371
54973
59541
63089
63842
63818
63608
62514
58895
53032
46016
39001
32886
28158
25043
23396
22940
23123
23741
24667
25563
26417
27072
27637
28271
28943
29504
29962
30250
30312
30215
30062
30029
30151
30291
30391
30413
30309
30157
30097
30121
30155
30193
30296
30381
30507
30663
30772
30846
30887
30858
30820
30863
30903
30960
30986
30992
31010
31045
31035
31061
31197
31435
31719
31951
32181
32209
32134
32107
32178
32284
32282
32238
32208
32261
32425
32561
32701
32774
32776
32783
32865
33049
33300
33489
33560
33533
33491
33523
33738
34054
34364
34616
34741
34717
34594
34533
34615
34950
35436
36024
36537
36960
37212
37383
37464
37492
37506
37514
37535
37547
37556
37591
37710
37982
38290
38558
38790
38924
39079
39016
38759
38439
38170
38166
38340
38504
38538
38381
38141
37829
37483
37079
36614
36146
35681
35190
34680
34135
33551
33008
32460
32031
31717
31424
31151
31042
31048
31080
31183
31210
31183
31011
30737
30406
30060
29820
29646
29658
29783
29924
30116
30171
30087
29875
29689
29583
29618
29706
29830
29977
30026
30056
30011
29979
29880
29828
29840
29960
30093
30119
30059
30036
30163
30300
30453
30545
30626
30685
30638
30491
30350
30215
30108
30084
30234
30462
30702
30895
31053
31122
31059
30836
30629
30406
30325
30446
30771
31066
31314
31491
31465
31375
31246
31135
31039
30926
30812
30729
30714
30797
30909
31013
31072
31130
31180
31216
31215
31152
31086
31052
30947
30920
30996
31100
31270
31306
31245
31095
30897
30641
30506
30684
30987
31243
31338
31386
31377
31340
31400
31494
31626
31673
31658
31589
31457
31337
31306
31346
31413
31502
31645
31728
31762
31734
31681
31559
31467
31407
31311
31133
30993
30846
30783
30797
30885
31080
31422
31772
31942
31912
31856
31828
31894
32038
32114
31911
31620
31315
30969
30801
30924
31126
31515
31860
32147
32273
32345
32459
32493
32514
32455
32297
32146
32012
31946
31886
31723
31388
31168
31171
31351
31688
32003
32236
32244
32119
32024
32008
32052
32092
32027
31958
31943
31942
31961
31953
31931
31898
31941
32041
32205
32277
32234
32124
31956
31817
31816
31927
32137
32362
32538
32690
32782
32939
33114
33371
33567
33595
33585
33597
33743
34043
34331
34544
34652
34736
34825
35032
35313
35514
35591
35500
35276
34861
34339
33844
33501
33376
33350
33259
33148
33069
32971
32848
32585
32273
31973
31749
31631
31537
31525
31519
31485
31428
31389
31434
31453
31488
31522
31571
31651
31632
31499
31327
31248
31264
31245
31196
31115
31105
31175
31207
31140
31015
30957
31102
31464
31927
32448
33166
34595
36920
40038
43530
47212
51067
55008
58931
62285
63749
63810
63678
62886
59532
53827
47073
40350
34403
29657
26333
24339
23533
23489
23832
24129
24245
24401
24694
25113
25660
26258
26913
27501
28228
28874
29258
29588
29824
29988
30118
30124
30140
30220
30302
30314
30277
30299
30459
30715
30956
31106
31238
31321
31352
31341
31425
31508
31523
31521
31528
31554
31558
31504
31478
31495
31591
31634
31660
31652
31564
31567
31624
31648
31541
31404
31491
31853
32386
32962
33384
33653
33737
33741
33663
33515
33362
33198
33064
32991
33018
33197
33512
33838
34074
34207
34289
34405
34616
34925
35268
35630
35941
36129
36207
36247
36326
36410
36537
36700
36938
37198
37438
37604
37700
37777
37753
37664
37604
37648
37892
38180
38469
38729
38889
38979
38936
38847
38751
38617
38421
38169
37920
37596
37290
37056
36862
36648
36377
35991
35630
35221
34754
34227
33716
33272
32886
32588
32340
32128
31862
31485
31104
30833
30736
30724
30733
30725
30594
30348
30129
29939
29845
29812
29756
29658
29503
29363
29190
29080
29043
29017
29053
29087
29194
29242
29270
29336
29425
29557
29758
29899
30069
30125
30115
30010
29919
29908
29973
30092
30117
30089
30057
30121
30234
30284
30218
30021
29834
29771
29827
29968
30072
30122
30053
29961
29950
30045
30276
30520
30706
30761
30730
30737
30779
30800
30714
30504
30284
30123
30108
30246
30417
30494
30538
30661
30823
30946
30972
30900
30734
30540
30409
30350
30321
30352
30294
30221
30228
30310
30448
30618
30728
30791
30713
30450
30141
29850
29771
29889
30250
30756
31175
31505
31666
31651
31500
31323
31124
30947
30807
30674
30583
30521
30630
30826
30984
31043
31029
31023
31016
30943
30852
30709
30603
30535
30615
30809
31016
31129
31149
31069
30918
30786
30746
30739
30755
30782
30795
30838
30888
30956
31051
31112
31216
31312
31411
31568
31621
31501
31321
31239
31251
31316
31373
31340
31256
31197
31241
31323
31432
31532
31604
31597
31534
31379
31200
30953
30768
30739
30961
31321
31692
31926
32042
32086
32074
31965
31821
31595
31366
31205
31141
31211
31390
31655
31895
32121
32244
32309
32386
32528
32672
32874
33108
33410
33660
33741
33705
33626
33596
33702
33915
34156
34330
34567
34878
35114
35232
35181
35065
34808
34423
33941
33497
33263
33103
32915
32652
32462
32396
32406
32460
32399
32245
31993
31729
31491
31266
31132
31022
30926
30860
30812
30743
30663
30580
30548
30521
30490
30423
30255
30067
29857
29801
29955
30262
30658
30947
31077
31073
30927
30729
30506
30473
30672
31058
31463
32154
33482
35541
38177
41183
44731
48809
53222
57770
61818
63792
63889
63809
63355
60957
55932
49253
41991
35259
29662
25651
23290
22331
22298
22757
23297
23972
24800
25625
26420
27166
27838
28371
28750
28917
28943
28997
29112
29328
29590
29855
30112
30324
30506
30571
30510
30317
30117
29956
29871
29927
30025
30165
30278
30341
30376
30435
30600
30737
30858
30972
31042
31050
30950
30881
30884
30985
31095
31304
31506
31724
31823
31850
31900
31929
31957
31956
31978
31975
32003
32131
32292
32492
32609
32721
32839
32950
33076
33105
33144
33142
33234
33475
33807
34174
34434
34608
34651
34698
34836
34982
35177
35339
35551
35768
35968
36175
36280
36394
36452
36486
36549
36690
36933
37264
37651
38042
38400
38660
38858
38889
38848
38760
38710
38709
38734
38825
38875
38932
38975
38994
38954
38824
38646
38367
38034
37564
37003
36467
35849
35249
34646
34137
33746
33412
33197
33014
32849
32717
32558
32311
31896
31431
31014
30656
30309
30029
29916
29972
30133
30283
30345
30304
30177
30004
29843
29720
29652
29602
29593
29628
29509
29376
29339
29367
29370
29320
29412
29532
29704
29876
30067
30276
30366
30397
30402
30352
30253
30192
30226
30253
30304
30316
30276
30230
30256
30316
30390
30452
30447
30367
30252
30181
30189
30285
30439
30644
30774
30862
30892
30940
30984
30942
30803
30617
30456
30456
30592
30733
30889
30924
30927
30879
30837
30797
30677
30496
30324
30317
30473
30782
31113
31397
31624
31660
31534
31483
31393
31299
31174
31056
30876
30666
30482
30488
30647
30815
30874
30799
30701
30722
30939
31198
31434
31591
31593
31478
31301
31085
31004
30939
30945
30942
30985
30991
30967
30935
30918
30925
30897
30963
31046
31146
31275
31340
31363
31273
31201
31138
31139
31249
31310
31383
31382
31329
31277
31143
31002
30856
30870
30954
31057
31207
31411
31639
31765
31821
31760
31660
31503
31374
31273
31256
31340
31493
31562
31571
31557
31434
31279
31206
31252
31443
31655
31844
31949
32018
32084
32089
32034
31835
31626
31451
31431
31624
31834
31976
32019
31966
31905
31835
31847
31823
31779
31697
31647
31645
31697
31844
32048
32236
32286
32226
32118
32079
31986
31952
31977
32042
32112
32174
32259
32333
32439
32552
32575
32518
32475
32660
32988
33382
33782
34148
34390
34497
34568
34667
34770
34895
34960
35051
35186
35380
35628
35700
35655
35489
35314
35128
34873
34639
34426
34200
33921
33612
33272
33033
32904
32815
32665
32381
32050
31717
31375
31172
31139
31291
31489
31645
31785
31835
31767
31653
31491
31382
31312
31307
31368
31400
31394
31367
31319
31323
31329
31402
31411
31319
31139
30922
30799
30831
31046
31363
31732
32214
33110
34699
36953
39655
42860
46645
51009
55795
60560
63738
63948
63933
63836
63344
60380
54471
47095
39633
32975
27792
24387
22633
22087
22396
23214
24382
25669
26933
27983
28941
29635
30105
30287
30300
30191
30043
29975
29984
30132
30253
30368
30430
30490
30610
30686
30753
30803
30805
30824
30894
30987
31024
31034
31027
31073
31143
31200
31202
31187
31152
31179
31266
31412
31626
31760
31839
31869
31845
31816
31761
31752
31729
31783
31837
31857
31916
32043
32293
32633
33018
33396
33594
33717
33745
33763
33775
33759
33755
33745
33762
33829
33898
34005
34122
34223
34383
34502
34625
34771
34966
35227
35476
35690
35912
36135
36448
36802
37066
37213
37239
37243
37373
37630
37974
38346
38633
38885
39091
39240
39332
39408
39455
39484
39512
39570
39583
39551
39507
39465
39476
39446
39407
39276
39018
38649
38113
37613
37231
36881
36589
36277
35964
35547
35067
34583
34156
33722
33259
32845
32460
32171
31876
31514
31151
30869
30733
30670
30614
30561
30482
30434
30412
30309
30157
29979
29878
29774
29760
29817
29908
29939
29860
29834
29887
29976
30010
29939
29794
29655
29523
29545
29716
29908
30163
30375
30508
30568
30535
30470
30313
30155
29981
29845
29755
29720
29717
29783
29942
30096
30183
30307
30440
30496
30452
30424
30379
30313
30315
30403
30498
30541
30538
30523
30539
30566
30581
30599
30681
30811
30930
30962
30946
30881
30836
30830
30824
30858
30865
30815
30746
30722
30729
30796
30807
30859
30909
30930
30923
30854
30796
30752
30694
30633
30541
30490
30539
30657
30763
30850
30831
30796
30735
30674
30659
30695
30775
30860
30854
30741
30541
30346
30309
30353
30434
30509
30611
30707
30796
30828
30867
30936
31055
31181
31345
31492
31439
31337
31204
31111
31040
30924
30814
30732
30814
30963
31160
31397
31557
31655
31701
31699
31668
31613
31568
31542
31505
31428
31279
31171
31145
31159
31197
31208
31184
31191
31236
31252
31273
31293
31394
31592
31823
31986
32082
32091
32048
31978
31917
31856
31724
31564
31365
31218
31240
31322
31507
31692
31791
31793
31678
31506
31334
31302
31379
31518
31701
31881
32074
32205
32268
32212
32102
31923
31827
31795
31853
31920
31975
32060
32147
32183
32211
32257
32326
32376
32335
32264
32163
32149
32255
32389
32598
32850
33010
33104
33208
33426
33650
33767
33852
33886
33970
34009
33954
33920
33958
34263
34735
35176
35432
35480
35411
35201
34775
34242
33738
33333
33079
32944
32904
32937
32923
32833
32590
32306
32079
31849
31700
31570
31425
31229
31037
30942
30906
30846
30770
30692
30617
30660
30762
30917
31073
31217
31321
31268
31170
31079
31048
31077
31070
30944
30707
30436
30283
30310
30680
31198
31869
32572
33572
35324
37821
40785
43985
47522
51435
55588
59730
63073
63847
63837
63645
62445
58357
52113
45010
38110
32270
27825
24901
23332
22907
23078
23461
23837
24214
24616
25062
25498
26041
26682
27254
27904
28450
28902
29242
29425
29461
29461
29518
29682
29898
30064
30108
30111
30159
30260
30361
30446
30483
30498
30489
30497
30572
30695
30855
30957
31051
31070
31080
31139
31152
31113
31064
30988
30940
30954
31011
31018
31024
30959
30864
30833
30967
31218
31515
31785
31981
32171
32279
32303
32340
32403
32581
32763
32890
32972
32981
33004
33017
33082
33203
33386
33561
33722
33904
34075
34218
34350
34503
34680
34817
34926
34947
35103
35437
35906
36373
36669
36933
37048
37085
37143
37270
37384
37458
37544
37656
37805
37975
38223
38416
38576
38709
38772
38774
38669
38464
38267
38072
37958
37818
37742
37595
37418
37156
36776
36397
36027
35707
35332
34920
34429
33916
33388
32817
32260
31716
31241
30906
30630
30414
30248
30133
30064
30060
30132
30232
30287
30225
30091
29863
29655
29428
29249
29108
28996
28919
28883
28936
28932
28835
28791
28762
28816
28968
29170
29375
29459
29447
29418
29453
29517
29664
29742
29729
29692
29637
29623
29608
29702
29728
29724
29716
29716
29719
29717
29759
29784
29752
29658
29514
29494
29594
29719
29785
29837
29840
29802
29791
29887
30078
30251
30351
30358
30382
30432
30450
30477
30456
30419
30369
30306
30240
30102
29989
29951
29958
29989
30057
30058
30054
30046
30078
30153
30184
30246
30336
30381
30435
30414
30347
30249
30144
30084
30093
30167
30283
30382
30437
30442
30346
30169
30061
29987
30015
30127
30315
30414
30431
30415
30348
30343
30381
30502
30689
30855
30944
30911
30858
30792
30706
30678
30696
30713
30802
30935
31055
31085
31121
31121
31077
30953
30790
30626
30513
30495
30482
30477
30481
30531
30683
30853
30937
30957
30995
31042
31073
31079
31107
31168
31211
31203
31179
31145
31070
30988
30860
30805
30826
30914
30970
31034
31136
31222
31246
31189
31113
31071
31072
31060
31044
30950
30921
30957
31072
31158
31241
31270
31273
31260
31287
31267
31213
31184
31148
31177
31276
31490
31715
31833
31875
31884
31919
32039
32251
32477
32701
32935
33106
33312
33539
33747
33939
34082
34243
34370
34558
34742
34813
34789
34677
34472
34164
33674
33182
32813
32534
32310
32136
31987
31928
31894
31877
31790
31679
31529
31334
31128
30944
30764
30660
30632
30690
30776
30875
30922
30893
30829
30752
30672
30546
30452
30417
30415
30471
30532
30497
30329
30145
29962
29909
29952
30101
30283
30534
30839
31204
31593
32012
32998
34823
37498
40601
44000
47783
51934
56265
60460
63494
63871
63851
63636
62244
57993
51674
44479
37500
31617
27123
24219
22718
22244
22438
22919
23312
23832
24485
25209
25884
26498
27133
27791
28473
29081
29565
29906
30067
30025
29959
29912
29956
30038
30090
30063
30060
30124
30185
30254
30295
30321
30386
30449
30572
30708
30813
30880
30931
30999
31058
31086
31112
31080
31034
30998
31047
31123
31308
31497
31634
31687
31721
31827
32004
32186
32310
32382
32421
32453
32472
32487
32463
32418
32416
32466
32620
32812
33047
33291
33538
33806
33965
34008
34038
34124
34290
34473
34589
34616
34639
34777
34962
35226
35547
35933
36287
36593
36856
37086
37238
37245
37148
37024
36970
37084
37360
37752
38184
38610
38955
39187
39256
39203
39072
38925
38874
38871
38933
39012
39057
38980
38787
38520
38146
37745
37321
36965
36634
36343
36112
35805
35392
34885
34319
33789
33249
32782
32344
31921
31496
31174
30979
30793
30600
30380
30188
30014
29949
29917
29913
29873
29762
29688
29599
29528
29498
29458
29392
29250
29101
28956
28928
29024
29148
29372
29567
29718
29772
29766
29647
29432
29288
29253
29372
29528
29704
29831
29915
30012
30040
30043
30003
29968
29964
29844
29699
29627
29688
29759
29788
29803
29838
29892
29971
30087
30215
30350
30450
30535
30584
30480
30369
30255
30183
30155
30140
30103
30005
30007
29977
29955
29909
29894
29950
30038
30179
30259
30351
30419
30419
30420
30404
30412
30387
30406
30476
30644
30760
30755
30695
30599
30536
30520
30526
30470
30377
30279
30169
30053
29935
29777
29632
29535
29630
29777
29963
30179
30412
30605
30692
30737
30755
30749
30721
30666
30506
30347
30232
30168
30184
30264
30389
30517
30545
30421
30211
30054
30093
30177
30305
30475
30702
30883
30983
30956
30920
30855
30793
30780
30756
30810
30923
31032
31013
30949
30944
30961
30955
30912
30828
30729
30653
30632
30662
30758
30880
31018
31077
31130
31149
31172
31192
31208
31234
31181
31161
31197
31271
31334
31279
31242
31246
31329
31404
31432
31455
31453
31388
31269
31173
31087
31013
30912
30829
30895
31026
31173
31383
31656
31910
32117
32189
32153
31978
31780
31542
31369
31206
31205
31316
31473
31609
31653
31694
31716
31733
31784
31879
31993
32159
32327
32401
32431
32428
32517
32694
32917
33166
33381
33581
33685
33757
33850
33949
34103
34276
34466
34711
34990
35178
35214
35209
35118
34946
34640
34220
33779
33392
33081
32709
32326
32005
31832
31787
31846
31918
31960
31912
31807
31711
31601
31506
31349
31141
30937
30733
30644
30627
30701
30893
31049
31118
31140
31152
31082
31030
30962
30903
30892
30915
30893
30796
30690
30631
30577
30551
30637
30885
31198
31619
32372
33853
36146
38956
42228
45986
50275
54963
59721
63551
63960
63954
63878
63563
61287
55838
48474
40777
33866
28396
24757
22817
22167
22410
23041
23841
24793
25722
26675
27491
28296
28911
29365
29725
29948
30022
30015
30014
30023
30090
30128
30212
30225
30185
30165
30118
30150
30180
30279
30413
30568
30676
30755
30795
30800
30739
30693
30699
30801
30990
31203
31403
31567
31660
31688
31688
31693
31756
31842
31913
31985
32087
32187
32248
32270
32259
32263
32261
32253
32271
32305
32391
32501
32649
32767
32910
33085
33269
33527
33747
33957
34129
34233
34294
34309
34302
34329
34424
34610
34882
35223
35497
35757
35980
36138
36328
36569
36779
36956
37098
37269
37469
37629
37785
37950
38181
38393
38574
38795
38995
39177
39303
39431
39596
39744
39902
39994
40016
39965
39909
39889
39828
39715
39568
39414
39250
38979
38578
38056
37510
36959
36405
35948
35585
35298
35011
34669
34280
33824
33402
33044
32669
32302
31949
31687
31472
31277
31083
30856
30673
30532
30421
30355
30248
30146
30101
30128
30275
30483
30707
30858
30841
30739
30536
30364
30247
30205
30187
30196
30225
30252
30305
30323
30308
30262
30190
30218
30305
30471
30711
30921
31075
31112
31128
31117
31085
31052
30984
30930
30956
31023
31082
31108
31079
31077
31095
31107
31072
30951
30737
30610
30618
30767
30963
31148
31240
31301
31355
31491
31593
31636
31688
31687
31568
31377
31183
30949
30629
30328
30187
30307
30733
31208
31733
32018
32039
31826
31497
31272
31193
31270
31379
31530
31658
31701
31683
31562
31442
31360
31328
31367
31340
31185
31008
30870
30878
31020
31174
31234
31280
31393
31540
31716
31820
31772
31692
31621
31572
31494
31429
31318
31204
31141
31164
31314
31525
31765
31977
32020
31964
31807
31537
31338
31198
31118
31077
31136
31320
31559
31856
32042
32182
32260
32317
32324
32272
32198
32072
31938
31879
31819
31728
31591
31430
31323
31309
31309
31305
31336
31469
31700
31924
32127
32261
32361
32409
32417
32293
32090
31880
31735
31731
31727
31791
31903
32075
32226
32249
32240
32192
32209
32273
32299
32308
32287
32303
32326
32353
32332
32239
32150
32073
31971
31956
31984
31983
31971
31914
31873
31835
31884
31980
32084
32146
32173
32231
32375
32566
32751
32834
32851
32791
32696
32564
32432
32334
32254
32217
32241
32341
32507
32627
32708
32652
32629
32832
33178
33621
33970
34215
34334
34356
34364
34420
34665
34931
35136
35260
35280
35318
35404
35510
35574
35557
35454
35269
34980
34643
34305
34020
33807
33558
33328
33074
32763
32438
32042
31709
31468
31409
31336
31331
31390
31444
31509
31457
31446
31497
31593
31637
31503
31350
31163
31049
31016
31060
31142
31149
31196
31272
31326
31340
31246
31082
30891
30672
30467
30407
30446
30687
31017
31397
32174
33535
35654
38291
41379
45065
49308
54023
58886
63123
63925
63954
63881
63586
61582
56424
49323
41724
34825
29247
25348
23075
22138
22144
22686
23561
24687
25752
26817
27669
28426
29048
29388
29543
29510
29474
29445
29399
29429
29502
29687
29814
29849
29830
29760
29747
29786
29849
29894
29892
29834
29770
29745
29776
29889
29991
30082
30134
30242
30342
30448
30518
30629
30669
30712
30768
30776
30778
30756
30700
30632
30535
30480
30434
30420
30477
30646
30899
31119
31336
31561
31703
31799
31817
31821
31816
31841
31938
32035
32229
32377
32489
32570
32703
32781
32792
32796
32869
33005
33240
33586
33916
34288
34614
34887
35033
35075
35057
35068
35102
35199
35348
35463
35559
35711
36001
36482
36885
37226
37569
37829
38011
38058
38117
38161
38145
38156
38159
38138
38144
38094
37983
37829
37640
37320
36878
36408
36039
35781
35586
35310
34853
34207
33518
33015
32703
32477
32301
32147
31911
31595
31193
30820
30422
30096
29821
29590
29382
29222
29044
28758
28429
28161
27974
27939
28105
28367
28713
28945
29016
28997
28897
28814
28754
28638
28475
28312
28240
28251
28349
28500
28634
28707
28686
28574
28439
28344
28231
28210
28340
28554
28791
28955
29067
29184
29276
29268
29213
29107
28986
28859
28814
28772
28756
28792
28858
28989
29078
29177
29248
29264
29302
29328
29330
29263
29112
29015
28949
28918
28937
28977
29060
29147
29121
29067
29012
29007
29100
29214
29318
29272
29115
28946
28857
28846
28880
28944
28955
29037
29133
29244
29316
29355
29433
29453
29437
29406
29315
29186
29060
28977
28918
28930
28989
29019
29056
29054
29060
29051
29015
29015
29071
29185
29359
29474
29538
29499
29370
29240
29092
29050
29048
29048
29069
29087
29179
29356
29486
29614
29686
29739
29729
29623
29492
29447
29480
29561
29625
29619
29530
29466
29440
29480
29563
29691
29815
29902
29952
29870
29649
29374
29220
29246
29370
29506
29752
29954
30140
30182
30160
30059
29941
29821
29616
29468
29428
29472
29655
29788
29840
29905
29963
30056
30111
30209
30320
30428
30498
30502
30545
30601
30617
30574
30583
30592
30549
30502
30409
30315
30293
30231
30155
29974
29812
29715
29785
29966
30196
30410
30608
30680
30697
30760
30857
31038
31272
31449
31434
31316
31282
31307
31500
31820
32175
32526
32837
33116
33353
33563
33830
34148
34372
34391
34284
34094
33867
33539
33096
32658
32254
31970
31715
31499
31382
31232
31078
30999
30967
30976
30925
30648
30182
29752
29453
29402
29593
29908
30225
30459
30589
30682
30737
30729
30695
30599
30482
30343
30193
30181
30246
30347
30367
30329
30292
30194
30092
29907
29856
29939
30187
30577
31032
31769
33129
35318
38223
41501
45048
48829
52791
56683
60249
62954
63693
63629
62908
59999
54649
47969
41171
34997
29989
26302
23974
22847
22536
22811
23182
23500
23790
24214
24749
25329
25955
26621
27120
27645
28103
28494
28938
29306
29669
29951
30118
30118
30046
29958
29877
29837
29774
29695
29666
29725
29945
30258
30577
30828
30931
30892
30805
30733
30731
30762
30800
30862
30992
31131
31244
31247
31236
31218
31289
31448
31644
31777
31818
31830
31837
31843
31836
31853
31957
32094
32291
32452
32630
32772
32819
32835
32943
33117
33316
33467
33521
33480
33491
33521
33707
33964
34214
34460
34692
34914
35102
35340
35578
35826
36049
36269
36489
36706
36939
37116
37268
37391
37480
37538
37536
37544
37543
37599
37713
37923
38174
38450
38747
38961
39123
39185
39189
39121
38989
38852
38732
38698
38630
38439
38154
37773
37434
37047
36589
36091
35611
35207
34768
34314
33841
33440
33083
32788
32537
32300
32009
31721
31454
31234
30991
30768
30662
30606
30456
30224
29957
29792
29723
29782
29911
30130
30352
30449
30469
30407
30314
30214
30056
29876
29707
29649
29651
29721
29886
30090
30206
30241
30251
30244
30285
30408
30509
30610
30580
30473
30380
30312
30287
30308
30438
30643
30764
30825
30810
30772
30729
30663
30610
30649
30755
30829
30893
30895
30859
30809
30830
30881
30984
31064
31094
31102
31072
31047
30987
30956
30931
30797
30667
30665
30820
30983
31048
31055
31047
31007
30989
30995
31015
31049
31082
31090
31069
31000
30925
30854
30830
30880
30955
31056
31083
31065
31017
30998
30952
30951
31054
31145
31299
31395
31370
31272
31179
31090
31071
31082
31122
31197
31266
31347
31407
31429
31380
31277
31172
31091
31086
31154
31302
31496
31684
31751
31765
31764
31770
31753
31694
31549
31391
31244
31111
31102
31227
31408
31619
31777
31887
31943
31955
31962
31957
31942
31927
31908
31849
31781
31719
31689
31736
31814
31963
32152
32306
32438
32505
32478
32384
32287
32178
32041
31924
31918
31977
32079
32158
32251
32341
32415
32484
32510
32422
32240
32111
32050
32119
32250
32434
32634
32839
33073
33288
33509
33764
34057
34326
34502
34645
34774
34902
34953
34922
34876
34848
34937
35183
35503
35752
35909
35970
35891
35609
35261
34936
34686
34466
34223
33953
33727
33545
33335
33064
32733
32401
32137
31882
31725
31662
31651
31684
31754
31848
31917
31979
32053
32122
32114
32036
31945
31795
31652
31501
31462
31492
31526
31594
31713
31863
32018
32109
32007
31831
31690
31546
31645
31883
32355
32996
34048
35838
38368
41358
44692
48376
52372
56567
60759
63684
63933
63942
63855
63341
60310
54460
47152
39767
33408
28616
25470
23917
23503
23806
24361
24950
25518
26209
26857
27392
27953
28511
29136
29731
30257
30681
30927
31016
31051
31012
31028
31115
31267
31468
31670
31834
31890
31916
31970
31997
32000
31928
31852
31757
31699
31749
31775
31835
31885
31917
31891
31841
31816
31876
32077
32342
32632
32834
32978
33084
33128
33120
33101
33131
33127
33079
32986
32941
32955
33004
33041
33136
33347
33559
33771
33956
34110
34199
34244
34337
34407
34454
34482
34524
34662
34826
35030
35252
35493
35772
36037
36341
36635
36944
37213
37384
37424
37435
37559
37817
38164
38447
38664
38796
38877
39001
39145
39335
39511
39683
39815
39828
39782
39734
39688
39640
39688
39773
39869
39968
40023
39999
39863
39625
39283
38948
38614
38238
37863
37491
37126
36715
36200
35654
35062
34523
34026
33624
33268
32943
32597
32238
31899
31627
31446
31375
31342
31342
31309
31276
31224
31135
31045
30922
30827
30744
30650
30527
30449
30420
30426
30475
30501
30502
30464
30412
30382
30423
30504
30631
30675
30634
30549
30504
30570
30708
30941
31148
31326
31435
31425
31351
31263
31193
31079
30993
30888
30740
30633
30603
30670
30886
31120
31406
31657
31843
31936
31895
31834
31700
31530
31397
31316
31308
31321
31328
31281
31148
31034
30960
31007
31183
31414
31712
31931
32006
32040
31983
31950
31917
31843
31784
31715
31713
31695
31633
31561
31471
31377
31324
31315
31318
31319
31336
31367
31383
31373
31336
31304
31309
31340
31369
31369
31277
31187
31182
31241
31316
31393
31458
31499
31456
31361
31210
31092
31092
31185
31327
31446
31497
31450
31412
31493
31653
31709
31753
31681
31486
31279
31100
31027
31005
31044
31077
31180
31331
31511
31705
31855
31997
32041
32010
31943
31821
31700
31592
31480
31400
31372
31426
31494
31585
31643
31654
31697
31755
31822
31883
31951
32013
32041
32109
32113
32077
31975
31880
31787
31650
31495
31410
31390
31452
31525
31560
31631
31720
31849
32019
32222
32396
32450
32464
32566
32717
32948
33200
33447
33648
33745
33753
33734
33789
33938
34182
34319
34406
34499
34681
34896
35054
35052
34962
34836
34657
34280
33911
33588
33283
32991
32676
32441
32301
32219
32090
31991
31983
31974
31895
31723
31399
31073
30855
30764
30774
30806
30867
30967
31073
31148
31107
30980
30784
30678
30726
30899
31041
31124
31197
31240
31265
31289
31193
31011
30767
30630
30712
31010
31414
31851
32339
33276
35028
37561
40540
43947
47858
52229
56914
61382
63832
63944
63935
63852
63356
60229
54129
46643
39167
32789
27965
24922
23303
22883
23083
23525
24005
24666
25371
26221
26948
27537
28132
28732
29238
29713
30031
30276
30449
30607
30736
30764
30757
30710
30693
30707
30745
30765
30795
30829
30891
30890
30950
30984
31069
31225
31408
31584
31645
31681
31654
31658
31666
31639
31561
31500
31490
31549
31717
31877
32016
32206
32383
32564
32781
33020
33199
33322
33414
33474
33553
33552
33522
33430
33354
33356
33471
33657
33946
34216
34378
34464
34427
34446
34546
34778
35055
35302
35553
35712
35806
35960
36154
36439
36675
36789
36812
36846
37028
37358
37817
38279
38673
38945
39111
39109
39013
38938
38921
39021
39185
39384
39597
39767
39867
39984
40112
40197
40279
40278
40168
39958
39693
39427
39118
38810
38491
38193
37841
37391
36956
36443
35965
35558
35191
34847
34386
33961
33536
33169
32890
32597
32338
32045
31796
31517
31249
31050
30902
30886
30921
30973
31016
31064
31073
31071
31014
30867
30642
30329
30103
29916
29878
29887
29962
30097
30325
30647
30892
31078
31118
31036
30892
30760
30703
30644
30648
30673
30685
30699
30698
30686
30605
30604
30740
30923
31113
31238
31241
31140
30982
30843
30826
30995
31185
31340
31408
31434
31496
31631
31709
31745
31757
31727
31712
31650
31608
31577
31533
31505
31465
31445
31439
31440
31407
31371
31365
31338
31337
31323
31363
31446
31502
31566
31558
31563
31562
31597
31639
31601
31532
31437
31429
31475
31593
31694
31713
31697
31660
31628
31620
31631
31625
31571
31502
31491
31565
31690
31758
31763
31753
31764
31753
31776
31827
31939
32017
32083
32021
31944
31854
31811
31759
31688
31626
31656
31815
32022
32156
32246
32318
32365
32404
32373
32316
32201
32063
31982
31850
31755
31709
31756
31908
32090
32302
32407
32495
32536
32587
32669
32698
32683
32664
32624
32530
32407
32275
32252
32327
32442
32637
32838
32977
33132
33267
33394
33563
33779
34024
34271
34436
34543
34518
34472
34508
34629
34782
34876
34932
35017
35215
35536
35837
36047
36139
36043
35809
35474
35063
34654
34302
34113
33973
33863
33700
33561
33458
33366
33221
32993
32747
32474
32239
32054
31893
31748
31643
31586
31566
31495
31367
31203
31090
31079
31117
31186
31303
31413
31537
31578
31494
31379
31277
31215
31210
31250
31200
31090
31015
30955
31081
31342
31753
32243
33155
34917
37470
40537
43889
47659
51914
56570
61305
63903
64014
64019
63970
63815
62474
57356
49911
41799
34486
28720
24856
22843
22216
22524
23191
24019
24932
25821
26696
27424
28180
28813
29314
29731
29944
29951
29814
29730
29717
29835
30092
30344
30537
30695
30813
30888
30928
30951
30932
30895
30899
30856
30805
30787
30840
30938
31008
31094
31191
31295
31365
31372
31367
31376
31439
31524
31690
31877
32004
32115
32195
32227
32186
32089
32003
31957
32011
32140
32288
32496
32702
32915
33101
33242
33284
33176
33072
33043
33119
33323
33520
33689
33801
33996
34333
34684
35002
35220
35406
35594
35720
35812
35843
35967
36157
36397
36682
36954
37186
37365
37476
37592
37714
37857
37978
38152
38417
38715
39014
39272
39491
39627
39693
39689
39680
39696
39723
39726
39707
39679
39627
39536
39396
39208
38915
38497
37954
37360
36795
36249
35705
35163
34647
34208
33744
33318
32859
32403
32003
31680
31426
31203
31075
30955
30800
30590
30290
30024
29846
29779
29780
29817
29771
29718
29719
29716
29709
29671
29636
29562
29499
29380
29292
29265
29334
29540
29727
29844
29826
29719
29645
29600
29655
29712
29784
29836
29850
29845
29834
29779
29671
29524
29493
29587
29833
30043
30245
30355
30454
30578
30651
30742
30826
30894
30921
30831
30694
30483
30315
30189
30065
29989
30009
30172
30381
30551
30668
30747
30769
30702
30607
30516
30454
30434
30474
30544
30641
30669
30673
30542
30379
30234
30093
30029
30045
30197
30478
30688
30811
30827
30830
30754
30674
30665
30672
30718
30755
30800
30863
30859
30822
30742
30685
30628
30605
30548
30445
30379
30344
30310
30308
30356
30430
30548
30673
30742
30810
30840
30833
30795
30763
30724
30698
30704
30759
30857
30955
31060
31085
31134
31177
31149
31179
31124
31093
31123
31132
31117
31059
31015
30969
31005
31082
31114
31152
31135
31110
31048
30971
30942
30962
31018
31027
31012
30995
31052
31146
31310
31525
31717
31793
31753
31625
31495
31412
31372
31403
31597
31845
32112
32260
32380
32504
32656
32845
33079
33369
33652
33888
34093
34243
34371
34396
34356
34327
34442
34753
34981
35103
35100
34978
34739
34316
33836
33332
32934
32618
32390
32221
32133
32080
31975
31880
31756
31652
31514
31373
31241
31120
31025
30923
30733
30534
30398
30369
30415
30474
30487
30440
30337
30255
30229
30316
30534
30764
30950
30996
30999
31028
31028
30964
30756
30471
30246
30160
30214
30374
30730
31302
32583
34641
37364
40511
44034
47959
52252
56701
60950
63670
63880
63848
63631
62267
57964
51388
43906
36681
30487
25894
23087
21751
21517
21985
22739
23645
24690
25697
26745
27629
28405
29010
29414
29733
29835
29757
29494
29212
29045
28891
28877
28992
29176
29411
29680
29840
29856
29885
29907
29961
30016
30039
30060
30054
30006
29879
29710
29601
29657
29792
30004
30186
30307
30330
30303
30320
30491
30756
31032
31213
31307
31313
31246
31165
31113
31082
31137
31193
31211
31233
31183
31178
31239
31367
31571
31800
32023
32271
32528
32814
33067
33235
33345
33416
33452
33451
33504
33612
33765
33943
34159
34364
34559
34727
34931
35131
35324
35530
35744
36011
36286
36554
36813
37026
37233
37397
37492
37565
37614
37643
37682
37731
37818
37937
38073
38211
38332
38396
38451
38418
38342
38180
37915
37577
37193
36797
36359
35862
35350
34848
34353
33856
33367
32969
32599
32236
31823
31376
30950
30547
30287
30136
30058
29974
29845
29696
29511
29318
29080
28919
28731
28604
28475
28390
28300
28220
28167
28167
28170
28177
28197
28255
28289
28265
28212
28167
28210
28345
28488
28659
28791
28843
28865
28769
28689
28616
28516
28488
28434
28382
28422
28506
28669
28799
28822
28711
28601
28500
28536
28681
28820
28923
28954
28962
29008
29059
29074
29043
28939
28792
28694
28694
28733
28825
28903
28945
29054
29096
29066
28984
28861
28763
28697
28731
28838
29010
29163
29264
29282
29224
29093
28984
28894
28914
29004
29046
28925
28663
28416
28302
28353
28537
28788
29013
29114
29115
29000
28766
28498
28285
28167
28157
28269
28444
28730
28950
28997
28948
28862
28916
29039
29094
29169
29134
29081
28994
28862
28759
28758
28794
28890
28984
29126
29238
29183
29073
28925
28766
28642
28535
28505
28508
28697
28934
29146
29361
29494
29630
29645
29540
29367
29157
29071
29077
29205
29337
29367
29280
29222
29245
29342
29498
29657
29787
29918
29975
29954
29790
29593
29376
29240
29157
29160
29221
29279
29332
29411
29513
29660
29865
30163
30431
30650
30740
30741
30668
30649
30706
30823
31013
31183
31391
31640
31851
32042
32196
32378
32558
32847
33190
33470
33453
33341
33068
32598
32011
31499
31245
31263
31375
31450
31390
31305
31148
30941
30655
30283
29946
29687
29454
29290
29243
29314
29434
29558
29620
29541
29442
29375
29309
29373
29493
29608
29691
29620
29520
29487
29473
29421
29336
29335
29380
29392
29327
29199
29053
28991
29140
29598
30234
30872
31606
32906
34962
37801
41006
44433
48164
52190
56270
59842
62525
63547
63448
62289
58894
53219
46388
39629
33662
29035
25685
23553
22467
22156
22340
22673
22950
23063
23196
23463
23912
24539
25233
26020
26858
27588
28204
28669
28975
29148
29267
29296
29279
29263
29245
29247
29221
29207
29209
29238
29216
29235
29349
29567
29924
30315
30638
30816
30854
30818
30708
30614
30637
30759
30872
30962
31029
31079
31149
31203
31248
31307
31370
31447
31490
31494
31460
31437
31457
31537
31676
31766
31833
31919
31977
32007
32145
32380
32709
33081
33411
33715
33961
34212
34449
34658
34818
34928
35012
35090
35212
35386
35548
35731
35934
36099
36238
36385
36578
36791
36969
37124
37236
37267
37352
37486
37686
38018
38351
38562
38645
38711
38787
38911
39041
39088
39063
39106
39132
39154
39066
38924
38732
38485
38154
37706
37213
36753
36298
35861
35476
35084
34690
34217
33689
33172
32742
32388
32144
31919
31656
31331
31070
30883
30686
30438
30206
30075
30043
30153
30282
30408
30413
30321
30122
29948
29847
29792
29791
29816
29842
29912
30007
30119
30162
30094
29888
29702
29507
29433
29454
29646
29914
30196
30402
30481
30471
30409
30304
30284
30250
30216
30161
30182
30248
30281
30280
30314
30473
30631
30682
30629
30532
30481
30564
30677
30815
30850
30787
30675
30600
30605
30705
30835
31009
31161
31305
31363
31373
31390
31438
31434
31340
31186
31045
30918
30839
30794
30746
30741
30756
30773
30807
30777
30731
30668
30624
30581
30525
30534
30540
30509
30436
30364
30348
30402
30617
30821
30975
31081
31158
31199
31250
31295
31259
31219
31134
31082
31064
31062
31082
31137
31148
31130
31136
31135
31088
31081
31128
31240
31285
31269
31212
31125
31066
30998
30939
30878
30891
30993
31085
31200
31246
31210
31122
31053
31004
31046
31094
31262
31497
31709
31851
31909
31864
31816
31751
31692
31605
31574
31574
31621
31657
31684
31665
31621
31626
31654
31798
31955
32079
32205
32435
32725
32977
33239
33536
33786
33994
34155
34290
34352
34328
34317
34391
34623
34950
35207
35276
35163
34868
34531
34254
34009
33842
33739
33640
33501
33311
33084
32877
32712
32478
32267
32070
31853
31595
31359
31211
31071
30992
30945
31000
31081
31144
31205
31271
31321
31361
31367
31304
31181
31119
31070
31017
30903
30766
30714
30720
30829
30993
31119
31125
31082
31055
31121
31427
31986
32908
34505
36961
40052
43547
47425
51664
56200
60856
63880
64042
64072
64041
63950
63551
60106
53277
45102
37359
31086
26694
24185
23126
23078
23555
24245
25011
25777
26630
27372
28250
29072
29795
30415
30768
30891
30863
30818
30726
30663
30655
30666
30672
30689
30758
30857
30950
30986
31004
31064
31188
31381
31563
31774
31913
32031
32089
32106
32043
31943
31860
31774
31710
31754
31815
31940
32042
32182
32258
32267
32252
32220
32314
32428
32567
32671
32766
32836
32856
32902
32977
33120
33293
33492
33742
33951
34112
34232
34370
34516
34639
34771
34922
35072
35238
35396
35561
35725
35818
35889
35962
36102
36333
36596
36910
37192
37422
37665
37877
38104
38282
38509
38745
38935
39065
39109
39209
39341
39536
39750
40006
40284
40504
40666
40805
40926
40964
40901
40791
40600
40402
40198
39945
39643
39288
38884
38406
37855
37278
36754
36265
35799
35352
34922
34502
34047
33588
33085
32594
32110
31702
31370
31075
30877
30671
30465
30414
30451
30576
30611
30635
30538
30373
30199
30026
29879
29699
29619
29589
29660
29789
29897
29946
29955
29968
29953
29941
29930
29876
29786
29658
29571
29585
29668
29777
29880
29962
30003
30019
30090
30194
30330
30446
30443
30478
30568
30565
30545
30516
30510
30506
30473
30446
30469
30575
30718
30832
30914
30891
30854
30832
30866
30875
30822
30777
30701
30686
30645
30670
30706
30800
30912
31013
31061
31011
30937
30860
30813
30854
30967
31053
31091
31091
31076
31062
31031
31042
30957
30824
30636
30441
30433
30626
30908
31183
31406
31574
31629
31607
31564
31526
31461
31371
31307
31257
31224
31121
31061
31048
31043
31082
31151
31248
31356
31396
31370
31247
31113
30974
30845
30823
30890
31065
31347
31621
31799
31923
32007
32046
32076
32033
31923
31835
31784
31722
31726
31717
31710
31711
31667
31639
31633
31627
31661
31674
31693
31689
31688
31682
31704
31754
31788
31786
31722
31670
31632
31666
31721
31737
31734
31722
31730
31786
31824
31916
32013
32180
32382
32619
32870
33138
33417
33666
33852
33979
34045
34101
34241
34395
34529
34569
34615
34704
34895
35196
35470
35643
35674
35501
35154
34696
34234
33844
33539
33335
33199
33151
33088
33008
32881
32702
32462
32191
31956
31721
31556
31444
31325
31242
31146
31069
31037
30986
30957
30983
31025
31088
31173
31204
31213
31212
31174
31084
31049
30949
30876
30849
30810
30730
30536
30355
30336
30507
30864
31254
31770
32338
33280
35013
37558
40798
44589
48953
53762
58906
63595
64049
64102
64094
64069
63970
63346
58730
50983
42356
34427
28097
23922
21756
21171
21647
22692
23924
25126
26253
27239
28117
28911
29477
29885
30126
30182
30153
30009
29902
29838
29842
29902
30005
30063
30022
29955
29872
29844
29936
30182
30488
30821
31028
31148
31170
31184
31171
31110
31074
31077
31129
31180
31269
31354
31380
31392
31434
31537
31718
31893
32014
32046
32056
32084
32083
32144
32239
32349
32463
32500
32517
32536
32625
32689
32784
32914
33003
33091
33232
33418
33650
33921
34211
34480
34742
34955
35159
35331
35500
35648
35820
35986
36171
36353
36527
36674
36848
37057
37276
37523
37760
37975
38224
38377
38498
38533
38599
38723
38868
39081
39310
39593
39895
40118
40256
40323
40376
40421
40383
40330
40235
40104
39936
39723
39462
39145
38732
38257
37702
37072
36386
35677
35061
34574
34212
33875
33620
33378
33104
32786
32370
31947
31547
31257
31071
30966
30944
30894
30813
30685
30574
30483
30405
30318
30212
30123
29984
29842
29732
29666
29694
29787
29889
30060
30220
30349
30421
30432
30434
30409
30341
30283
30228
30215
30185
30198
30284
30388
30530
30609
30576
30477
30408
30340
30280
30269
30328
30457
30600
30708
30862
30936
30965
30986
31003
31047
30952
30856
30755
30773
30877
30931
30970
30987
31015
31063
31121
31186
31176
31131
31110
31089
31081
31067
31030
30988
30921
30835
30823
30817
30854
30925
30982
30995
30991
31000
31015
31055
31058
31064
31029
30949
30900
30897
30952
30951
30948
30920
30886
30887
30859
30882
30867
30919
31042
31120
31222
31212
31208
31196
31143
31099
31045
31008
30981
30988
31042
31091
31203
31249
31244
31204
31141
31056
30951
30888
30887
30921
30955
31027
31058
31075
31086
31115
31170
31205
31182
31049
30822
30587
30433
30379
30475
30741
31056
31344
31557
31696
31770
31780
31750
31629
31503
31391
31306
31271
31252
31381
31498
31519
31464
31370
31305
31345
31495
31661
31782
31840
31850
31846
31849
31881
31878
31828
31774
31732
31716
31785
31986
32290
32609
32909
33223
33454
33660
33813
33923
34092
34233
34363
34461
34538
34569
34504
34424
34335
34450
34710
35010
35286
35413
35430
35244
34863
34398
33939
33580
33327
33138
33011
32906
32821
32686
32464
32260
32039
31738
31463
31245
31107
31058
31020
31010
31006
30983
30901
30870
30823
30848
30941
31051
31118
31184
31253
31304
31349
31372
31322
31310
31244
31199
31114
30951
30858
30808
30896
31119
31521
32121
33182
35084
37751
40958
44632
48819
53439
58416
63194
64013
64069
64069
64039
63926
63054
58068
50281
41858
34289
28382
24558
22623
22065
22444
23342
24549
25759
26805
27657
28383
28986
29431
29778
30066
30279
30444
30635
30698
30737
30730
30706
30690
30670
30660
30638
30688
30726
30736
30692
30593
30468
30412
30438
30536
30689
30768
30878
31019
31188
31382
31627
31840
32015
32203
32288
32319
32356
32403
32433
32465
32557
32606
32611
32586
32560
32534
32502
32445
32392
32397
32509
32689
32937
33144
33389
33632
33785
33905
33909
33883
33885
33954
34090
34227
34381
34515
34662
34833
34995
35173
35368
35571
35809
36061
36360
36761
37178
37586
37942
38259
38478
38630
38777
38910
39019
39113
39184
39240
39323
39442
39528
39634
39713
39831
39963
39991
39996
39960
39958
39979
39915
39817
39598
39360
39118
38824
38441
37924
37373
36776
36129
35506
34917
34403
33954
33573
33266
33011
32726
32476
32250
32035
31824
31581
31282
30950
30617
30304
30110
29960
29953
29978
29979
29961
29856
29754
29659
29662
29753
29824
29885
29874
29830
29818
29794
29720
29573
29437
29430
29479
29699
29980
30294
30505
30617
30632
30631
30686
30745
30802
30834
30827
30757
30671
30504
30313
30125
29990
30011
30168
30427
30744
31025
31210
31329
31317
31186
31016
30823
30732
30694
30686
30707
30750
30819
30882
30934
30969
31005
31040
31054
31076
31076
31052
30958
30819
30639
30476
30378
30405
30474
30610
30728
30818
30947
31057
31090
31153
31115
31048
30946
30869
30845
30865
30891
30897
30889
30869
30882
30869
30879
30835
30812
30810
30789
30813
30895
30946
30980
30987
30997
30991
30923
30854
30743
30721
30735
30759
30799
30763
30794
30823
30809
30792
30766
30763
30787
30788
30771
30791
30820
30874
30883
30932
30945
30941
30967
31020
31070
31087
31124
31084
31021
30868
30727
30619
30532
30526
30590
30701
30890
31075
31287
31446
31561
31622
31622
31566
31466
31378
31271
31172
31151
31180
31230
31268
31268
31244
31208
31236
31261
31332
31440
31523
31539
31517
31449
31405
31376
31397
31449
31532
31625
31664
31751
31891
32119
32337
32500
32541
32616
32756
32991
33328
33689
33965
34210
34418
34601
34735
34789
34743
34697
34838
35013
35072
35001
34834
34548
34172
33809
33564
33421
33332
33260
33146
32979
32763
32530
32267
31916
31651
31465
31294
31100
30868
30606
30403
30318
30302
30403
30521
30644
30740
30811
30826
30763
30700
30695
30667
30706
30777
30892
30952
30928
30834
30741
30648
30495
30280
30025
29879
29972
30343
30788
31318
32486
34529
37477
40982
44923
49255
53962
58912
63415
64019
64059
64057
64005
63861
62478
56860
48972
40510
32929
26984
23072
21108
20685
21204
22310
23689
25044
26210
27197
28029
28727
29199
29471
29563
29433
29217
29083
29079
29126
29172
29203
29199
29203
29333
29527
29753
29971
30216
30401
30501
30504
30445
30313
30177
30102
30126
30249
30403
30583
30686
30736
30783
30836
30820
30701
30645
30599
30652
30804
31021
31217
31425
31567
31601
31599
31617
31657
31728
31810
31874
31989
32155
32249
32304
32396
32478
32612
32784
33018
33213
33404
33526
33632
33759
33920
34127
34294
34408
34452
34534
34706
34935
35203
35511
35827
36151
36404
36524
36557
36628
36784
37037
37311
37532
37673
37732
37776
37841
38016
38260
38550
38886
39087
39118
39010
38896
38820
38849
38985
39147
39283
39310
39199
38975
38661
38273
37789
37283
36768
36306
35822
35401
34983
34555
34129
33655
33202
32692
32170
31651
31155
30792
30408
30162
30040
30009
29984
30010
30086
30081
30012
29951
29880
29871
29848
29833
29723
29620
29453
29317
29208
29091
29060
29051
29078
29174
29216
29252
29244
29238
29259
29303
29316
29358
29384
29456
29619
29731
29910
30014
30065
29981
29895
29807
29771
29835
29906
30060
30222
30308
30348
30350
30389
30434
30455
30459
30437
30430
30369
30275
30095
29941
29878
29937
30045
30125
30193
30285
30346
30435
30501
30503
30501
30506
30574
30621
30646
30618
30541
30469
30431
30418
30418
30310
30175
30015
29872
29798
29739
29755
29879
30019
30259
30541
30736
30897
31041
31061
31013
30893
30730
30634
30544
30482
30457
30482
30502
30468
30375
30212
30001
29875
29882
29970
30170
30322
30464
30575
30608
30625
30629
30623
30632
30617
30575
30502
30423
30363
30329
30317
30345
30326
30336
30351
30344
30354
30371
30311
30219
30126
30059
29984
29944
29914
30007
30263
30542
30787
30964
31055
31053
31000
30861
30721
30699
30834
31011
31139
31241
31310
31349
31395
31341
31305
31248
31175
31142
31116
31074
31027
30955
30870
30798
30761
30769
30813
30860
30886
30901
30989
31122
31248
31306
31329
31415
31543
31747
31972
32273
32673
33010
33264
33437
33525
33599
33656
33718
33795
33861
33876
33877
33963
34181
34425
34606
34724
34791
34765
34637
34375
34041
33676
33331
33028
32745
32488
32303
32178
32021
31822
31601
31327
31041
30737
30448
30224
29999
29843
29785
29884
30119
30406
30648
30857
31020
31120
31171
31150
31114
31108
31096
31101
31057
31009
30948
30897
30817
30656
30413
30254
30189
30308
30588
30992
31715
33253
35684
38790
42272
46133
50422
55001
59723
63643
64007
64009
63996
63889
63194
58950
51908
43824
36174
29803
25162
22379
21062
20960
21435
22325
23423
24708
25971
27183
28219
28985
29369
29564
29651
29588
29499
29371
29252
29182
29152
29166
29183
29239
29254
29279
29336
29438
29568
29723
29890
30087
30220
30273
30330
30362
30407
30417
30382
30319
30266
30282
30351
30438
30489
30525
30569
30650
30668
30662
30659
30710
30798
30864
30883
30879
30861
30954
31087
31246
31420
31592
31784
31893
31967
32031
32178
32336
32504
32657
32734
32791
32840
32908
33017
33148
33290
33425
33604
33818
34090
34422
34678
34861
34926
35006
35103
35256
35484
35718
35950
36106
36241
36399
36583
36785
36978
37155
37282
37414
37551
37649
37706
37708
37713
37729
37807
37877
37880
37851
37747
37656
37572
37466
37351
37204
37007
36654
36226
35750
35256
34673
34089
33507
33003
32533
32067
31632
31194
30822
30439
30177
29960
29760
29596
29404
29250
29098
28975
28853
28760
28694
28608
28494
28410
28350
28341
28311
28300
28249
28172
28142
28094
28059
27970
27872
27719
27591
27519
27553
27715
27911
28177
28419
28688
28852
28993
29069
29094
29096
29051
28952
28831
28760
28692
28544
28419
28294
28232
28212
28199
28189
28172
28179
28159
28128
28155
28222
28322
28415
28511
28640
28728
28763
28760
28750
28684
28595
28473
28433
28440
28475
28484
28357
28254
28189
28160
28090
28068
28049
28046
28086
28062
28012
27962
27968
27940
27885
27845
27830
27849
27909
28003
28100
28157
28185
28135
28059
27965
27842
27743
27659
27558
27528
27535
27551
27635
27757
27908
28026
28090
28007
27840
27691
27540
27493
27574
27729
27893
28043
28107
28045
27949
27882
27825
27862
27966
28113
28171
28172
28128
28082
28022
27975
27948
27845
27761
27678
27600
27628
27640
27707
27780
27828
27853
27896
27950
27965
27988
27985
28005
27953
27944
27956
28040
28149
28152
28174
28183
28170
28242
28293
28356
28392
28377
28382
28378
28310
28264
28246
28207
28258
28288
28279
28235
28213
28222
28232
28281
28313
28411
28516
28620
28822
29019
29217
29453
29756
30114
30362
30490
30421
30366
30429
30595
30766
30958
31188
31538
31958
32258
32400
32433
32272
31912
31415
30961
30619
30293
29974
29667
29429
29302
29162
29018
28800
28597
28405
28279
28298
28411
28409
28242
27909
27533
27213
27074
27103
27235
27434
27650
27825
27950
28019
28121
28214
28294
28356
28379
28314
28244
28153
27939
27771
27532
27280
27136
27298
27756
28352
29132
30471
32518
35357
38794
42538
46559
50677
54703
58334
61066
62579
62608
61164
57835
52434
45855
39317
33575
28880
25289
22934
21495
20977
20938
21095
21289
21387
21447
21623
21900
22287
22741
23358
24214
25137
26073
26872
27398
27787
28015
28096
28078
28024
27962
27907
27873
27855
27887
27921
27957
28018
28085
28089
28172
28347
28569
28805
28990
29097
29144
29095
29031
28911
28813
28741
28693
28784
29006
29294
29605
29873
30096
30252
30347
30391
30410
30343
30308
30294
30311
30386
30454
30615
30780
30950
31126
31332
31485
31609
31662
31646
31671
31756
31908
32052
32246
32483
32721
32964
33162
33366
33567
33763
33972
34118
34263
34397
34527
34664
34776
34922
35054
35169
35296
35450
35622
35824
36032
36272
36487
36630
36668
36673
36679
36664
36685
36731
36714
36669
36612
36558
36545
36550
36531
36417
36218
35879
35435
34909
34368
33883
33471
33141
32771
32407
32021
31595
31183
30795
30440
30196
29974
29809
29511
29254
29055
28920
28823
28771
28713
28598
28405
28186
28012
27908
27915
28012
28161
28287
28375
28445
28491
28574
28606
28612
28621
28579
28483
28378
28348
28366
28533
28802
29050
29187
29268
29296
29269
29283
29314
29317
29305
29258
29240
29226
29176
29166
29109
29133
29193
29274
29334
29338
29370
29367
29374
29405
29468
29513
29509
29507
29526
29538
29559
29594
29658
29730
29756
29716
29626
29508
29458
29497
29632
29725
29720
29627
29501
29434
29431
29522
29714
29929
30164
30312
30406
30345
30225
30085
29916
29871
29821
29834
29878
29944
30016
30111
30132
30136
30141
30179
30184
30189
30184
30217
30268
30313
30311
30346
30433
30539
30590
30604
30585
30540
30506
30469
30414
30300
30286
30349
30446
30627
30773
30887
30952
30924
30865
30767
30733
30741
30841
31003
31153
31297
31332
31313
31270
31231
31208
31152
31107
31019
30994
31052
31086
31210
31287
31324
31315
31288
31257
31240
31275
31347
31401
31426
31430
31388
31341
31285
31264
31284
31342
31406
31519
31692
31856
32043
32228
32460
32811
33151
33439
33681
33886
34030
34132
34172
34184
34264
34374
34459
34554
34730
35014
35261
35401
35432
35369
35222
34973
34667
34358
34031
33740
33450
33200
32963
32739
32552
32372
32227
32176
32120
32085
32045
31953
31758
31594
31454
31338
31258
31180
31134
31142
31084
31072
31119
31214
31272
31324
31408
31453
31501
31530
31513
31507
31468
31334
31072
30800
30629
30623
30866
31275
31837
32731
34326
36847
40105
43784
47816
52214
56872
61487
63945
64029
64049
64045
64003
63669
60431
53659
45470
37529
30985
26262
23537
22447
22468
23042
23756
24712
25718
26784
27732
28582
29214
29717
30023
30274
30394
30454
30504
30537
30542
30485
30480
30623
30850
31110
31332
31512
31627
31653
31657
31624
31651
31669
31723
31786
31873
31973
32057
32224
32366
32482
32574
32619
32587
32519
32469
32558
32705
32861
32969
33044
33100
33135
33100
33023
32994
33011
33097
33215
33331
33378
33405
33400
33429
33460
33535
33600
33721
33882
34041
34284
34567
34869
35219
35541
35839
36051
36255
36444
36529
36573
36613
36716
36863
37065
37297
37451
37582
37700
37840
38020
38175
38308
38445
38535
38615
38703
38867
39084
39333
39541
39734
39906
40029
40135
40237
40331
40406
40476
40481
40478
40465
40334
40025
39615
39179
38729
38319
37870
37419
36884
36316
35773
35332
35081
34897
34769
34608
34402
34176
33817
33467
33083
32742
32419
32077
31779
31539
31372
31238
31103
31030
30990
30989
30997
31017
31052
31143
31250
31339
31355
31311
31261
31153
31056
30890
30764
30751
30784
30897
31006
31128
31229
31314
31368
31428
31512
31531
31525
31510
31557
31689
31846
32015
32085
32111
32093
32073
32077
32043
32076
32035
32037
32070
32046
31977
31882
31834
31836
31832
31787
31721
31636
31619
31671
31787
31952
32171
32331
32365
32340
32341
32321
32274
32233
32222
32183
32068
31934
31831
31828
31917
32089
32184
32212
32174
32115
32115
32113
32102
32016
31903
31777
31663
31727
31846
31969
32027
31925
31770
31684
31716
31860
32034
32254
32540
32782
32796
32591
32410
32332
32231
32112
32094
32161
32347
32679
33025
33177
33135
33019
32916
32811
32681
32573
32580
32731
32886
32756
32403
32125
32189
32592
33073
33432
33495
33276
32656
31812
31265
31200
31433
31601
32010
32855
33874
34808
35359
35461
35202
34808
34450
34303
34275
34292
34275
34287
34341
34445
34562
34646
34769
34827
34852
34946
35110
35337
35594
35840
36046
36266
36425
36417
36256
36181
36357
36628
36942
37213
37384
37471
37361
37118
36806
36463
36136
35823
35518
35163
34796
34420
33998
33703
33540
33353
33128
32949
32888
32898
32968
33074
33182
33305
33358
33305
33189
33002
32753
32529
32374
32437
32642
32796
32931
33003
33092
33187
33279
33346
33225
32901
32489
32151
32085
32370
32847
33452
34292
35711
38005
41141
44910
49208
53875
58803
63413
64031
64092
64125
64135
64087
63954
62797
57307
49301
40928
33641
28155
24801
23290
23130
23681
24412
25250
26244
27347
28609
29704
30688
31269
31590
31625
31577
31557
31562
31540
31482
31437
31447
31529
31600
31565
31438
31319
31360
31522
31800
32038
32263
32323
32326
32245
32023
31876
31782
31839
32040
32262
32467
32587
32666
32687
32693
32725
32732
32762
32753
32645
32487
32391
32467
32697
32989
33267
33502
33621
33707
33771
33824
33925
34006
34101
34216
34297
34396
34480
34519
34436
34321
34305
34427
34701
35085
35475
35902
36284
36478
36476
36279
36050
35984
36127
36525
37014
37535
37967
38237
38386
38537
38752
38927
39025
39119
39233
39337
39428
39474
39447
39396
39347
39362
39502
39547
39520
39460
39471
39544
39695
39834
39890
39882
39793
39558
39179
38745
38275
37738
37258
36765
36270
35715
35223
34811
34485
34188
33861
33540
33203
32877
32540
32233
31981
31731
31460
31191
30978
30818
30755
30751
30708
30675
30609
30640
30723
30861
31016
31122
31179
31117
31006
30822
30646
30583
30644
30811
30970
31064
31091
31047
31003
30971
30949
30880
30766
30638
30576
30615
30755
30965
31119
31240
31260
31205
31110
31031
31033
31052
31129
31276
31454
31622
31697
31752
31752
31722
31680
31574
31407
31182
31007
30901
30914
30890
30861
30827
30828
30909
31058
31251
31384
31421
31366
31309
31284
31304
31361
31405
31385
31315
31313
31366
31461
31567
31641
31699
31712
31716
31679
31530
31339
31116
30955
30947
31060
31243
31430
31568
31654
31661
31630
31506
31399
31338
31350
31373
31380
31315
31285
31384
31464
31524
31537
31630
31722
31800
31835
31827
31879
31963
32044
32041
31963
31789
31619
31525
31595
31790
31973
32183
32323
32396
32425
32372
32284
32172
32047
31979
31839
31729
31723
31823
31937
32011
32067
32044
32017
32009
32039
32135
32292
32496
32755
33014
33268
33536
33764
33976
34170
34324
34439
34528
34655
34757
34856
34902
35017
35268
35629
35969
36110
36112
35942
35647
35332
34960
34568
34162
33782
33475
33324
33328
33409
33498
33492
33369
33197
32918
32590
32251
31966
31790
31670
31550
31446
31427
31429
31470
31473
31527
31608
31700
31798
31871
31876
31826
31811
31751
31669
31615
31502
31407
31282
31072
30806
30584
30607
30888
31334
31910
32915
34714
37448
40907
44732
48945
53417
58035
62484
63973
64052
64082
64057
63950
63241
58955
51818
43633
35919
29659
25339
23013
22125
22274
22943
23835
24919
26045
27146
28163
29055
29788
30388
30810
31015
31068
31067
31026
30985
30883
30735
30577
30474
30406
30423
30535
30756
31034
31257
31449
31494
31470
31449
31524
31689
31860
31967
31984
31965
31885
31718
31508
31430
31534
31890
32295
32625
32821
32965
33061
33090
33038
32885
32694
32632
32705
32830
32996
33168
33375
33562
33746
33876
33945
33978
34029
34113
34210
34354
34503
34640
34784
34866
34976
34975
34918
34893
34939
35112
35429
35814
36211
36587
36959
37245
37445
37552
37618
37714
37850
37999
38146
38216
38217
38226
38303
38430
38593
38795
38997
39209
39424
39581
39725
39843
39898
39810
39567
39247
38926
38724
38761
38926
39109
39215
39199
39011
38599
38079
37480
36891
36376
35918
35522
35132
34733
34262
33752
33268
32861
32565
32375
32272
32180
32008
31730
31437
31200
31006
30821
30715
30746
30888
31008
31070
31065
30988
30858
30728
30638
30634
30667
30638
30571
30506
30577
30689
30738
30731
30731
30748
30763
30822
30906
31055
31224
31432
31635
31781
31858
31791
31661
31466
31303
31212
31208
31302
31402
31464
31447
31380
31325
31267
31210
31187
31172
31174
31176
31193
31219
31263
31278
31299
31311
31322
31402
31556
31686
31692
31632
31509
31405
31320
31277
31358
31464
31630
31761
31818
31849
31818
31793
31747
31723
31692
31605
31528
31468
31432
31329
31241
31179
31170
31259
31399
31525
31620
31639
31548
31376
31270
31174
31186
31232
31255
31268
31212
31173
31134
31197
31250
31300
31335
31385
31497
31627
31753
31818
31762
31627
31498
31465
31515
31652
31827
32016
32164
32232
32176
32001
31841
31663
31521
31441
31475
31583
31653
31726
31852
32007
32104
32086
32044
32013
32049
32140
32259
32381
32521
32690
32793
32870
32923
33009
33145
33307
33487
33599
33621
33600
33686
33940
34258
34546
34799
35046
35336
35690
35943
36099
36076
35890
35528
35063
34659
34318
34030
33739
33411
33099
32746
32392
32030
31794
31687
31633
31596
31517
31453
31370
31330
31275
31259
31235
31204
31206
31139
31067
31070
31073
31121
31124
31117
31089
31072
31082
31080
31065
31019
30988
30924
30790
30516
30274
30052
30108
30377
30822
31505
32896
35177
38338
42061
46180
50626
55258
59840
63670
63998
64042
64048
63989
63765
61291
55072
47010
38782
31706
26378
23070
21528
21321
21913
22813
23814
24905
25943
27013
27961
28837
29435
29815
29948
29950
29863
29768
29712
29709
29720
29775
29841
29851
29876
29829
29814
29825
29897
29944
29941
29949
30027
30244
30491
30688
30703
30612
30521
30476
30459
30588
30793
31033
31196
31328
31431
31520
31655
31791
31915
32026
32116
32133
32090
31988
31845
31760
31738
31799
31939
32124
32327
32527
32733
32917
33097
33266
33341
33371
33411
33447
33559
33740
33895
34021
34139
34259
34402
34547
34714
34893
35118
35390
35664
35917
36123
36310
36510
36734
36937
37116
37268
37371
37423
37435
37455
37480
37436
37389
37401
37541
37764
38025
38263
38434
38598
38752
38838
38876
38784
38614
38377
38108
37864
37628
37405
37187
36916
36603
36212
35781
35290
34729
34141
33565
33144
32816
32521
32218
31860
31536
31285
31108
30966
30858
30795
30730
30636
30503
30348
30181
30017
29899
29758
29598
29444
29393
29433
29624
29848
30171
30352
30450
30478
30471
30418
30322
30214
30127
30157
30185
30227
30293
30310
30292
30304
30317
30416
30507
30625
30695
30757
30770
30738
30701
30683
30681
30657
30632
30619
30651
30708
30795
30796
30745
30612
30449
30354
30369
30449
30551
30596
30600
30673
30796
30861
30921
30920
30899
30931
30918
30886
30763
30670
30525
30372
30235
30153
30189
30301
30381
30435
30436
30414
30382
30403
30430
30480
30601
30733
30760
30733
30655
30510
30429
30359
30312
30233
30168
30207
30298
30451
30612
30692
30672
30524
30362
30228
30195
30236
30417
30585
30802
31050
31169
31199
31144
31066
30994
30884
30800
30700
30635
30529
30411
30369
30369
30475
30626
30729
30788
30834
30877
30870
30832
30820
30822
30827
30914
31056
31227
31433
31595
31701
31763
31827
31882
31998
32209
32454
32769
33097
33457
33727
33846
33826
33779
33929
34238
34565
34703
34695
34549
34294
33936
33539
33205
32945
32618
32298
31932
31697
31534
31383
31152
30865
30508
30178
29894
29820
29896
30102
30249
30295
30247
30176
30102
30096
30128
30177
30218
30239
30251
30224
30122
30012
29949
29893
29846
29872
29888
29931
29856
29686
29377
29298
29506
29921
30433
30991
31958
33758
36377
39634
43338
47536
52112
56762
61209
63779
63938
63923
63792
63054
59470
53208
45674
38126
31611
26688
23446
21846
21424
21802
22460
23191
24059
24936
25812
26703
27476
28164
28653
29007
29207
29350
29324
29246
29137
29110
29152
29206
29302
29351
29436
29534
29623
29687
29682
29704
29793
29867
29939
29952
30016
30083
30094
30043
29975
29938
29882
29905
30021
30279
30577
30861
31067
31240
31326
31317
31192
31027
30923
30927
31041
31227
31441
31631
31785
31950
32107
32288
32451
32600
32746
32783
32820
32819
32838
32919
32979
33071
33138
33322
33543
33789
34115
34363
34600
34807
34904
34820
34604
34447
34495
34749
35164
35700
36233
36666
37013
37239
37350
37339
37316
37272
37242
37192
37208
37319
37501
37788
38028
38185
38224
38204
38152
38117
38130
38090
38045
37941
37838
37738
37514
37201
36814
36416
35988
35471
34979
34488
34110
33797
33476
33148
32811
32455
32138
31830
31541
31258
31018
30757
30441
30188
29968
29811
29688
29502
29336
29137
28924
28737
28707
28891
29208
29605
29917
30158
30283
30311
30284
30157
29945
29716
29444
29246
29131
29194
29335
29542
29754
29882
30013
30109
30165
30153
30052
29973
29876
29811
29802
29876
30003
30121
30248
30316
30373
30324
30279
30248
30285
30312
30410
30502
30613
30718
30772
30764
30667
30499
30347
30287
30308
30316
30377
30406
30414
30413
30426
30447
30426
30376
30256
30193
30186
30163
30128
30099
30096
30083
29977
29885
29836
29908
30120
30317
30533
30659
30650
30504
30341
30185
30094
30107
30194
30411
30669
30849
30886
30801
30661
30440
30284
30248
30309
30449
30580
30690
30745
30735
30700
30674
30740
30869
30949
30987
30942
30795
30626
30428
30362
30343
30375
30463
30601
30714
30766
30826
30867
30868
30825
30734
30669
30670
30660
30618
30538
30486
30581
30882
31292
31884
32475
32976
33350
33549
33556
33461
33375
33356
33395
33451
33495
33597
33811
33982
34038
34033
34025
33965
33841
33679
33474
33301
33166
32962
32747
32506
32286
32056
31755
31391
31091
30858
30667
30472
30377
30304
30184
30095
29984
29856
29727
29566
29437
29379
29466
29731
30054
30397
30645
30833
30924
30947
30857
30690
30503
30314
30093
29793
29519
29351
29319
29533
29989
30576
31191
32286
34141
36796
40059
43666
47556
51631
55670
59413
62312
63561
63563
62802
60235
55629
49712
43364
37156
31817
27684
24850
23173
22497
22427
22663
22935
23299
23875
24648
25391
26275
27085
27834
28436
28845
29072
29157
29199
29183
29126
29153
29203
29299
29378
29430
29469
29455
29454
29503
29575
29715
29882
29997
29993
29953
29849
29714
29570
29531
29555
29725
29969
30356
30858
31242
31560
31730
31727
31590
31251
30945
30694
30712
30951
31337
31849
32273
32474
32364
32172
31986
31946
32089
32269
32396
32421
32340
32341
32490
32784
33142
33514
33692
33717
33618
33524
33641
33887
34165
34418
34749
35120
35523
35788
35932
35952
35857
35809
35830
35958
36183
36352
36519
36699
36976
37308
37607
37779
37737
37648
37613
37715
37917
38168
38358
38425
38421
38310
38154
37970
37867
37878
37832
37740
37580
37324
37004
36603
36115
35554
35004
34473
33988
33536
33107
32712
32284
31827
31408
31066
30762
30569
30403
30290
30197
30219
30282
30250
30182
30007
29893
29796
29696
29656
29659
29737
29845
29885
29818
29664
29629
29655
29755
29895
30001
30121
30189
30228
30205
30149
30076
30062
30122
30122
30097
30132
30276
30406
30534
30503
30315
30066
29825
29777
29943
30263
30689
31044
31218
31320
31347
31251
31128
30990
30879
30778
30703
30699
30628
30509
30414
30300
30286
30314
30448
30626
30678
30670
30587
30511
30336
30128
29992
29970
30057
30211
30392
30549
30734
30788
30796
30862
30981
31014
30924
30836
30818
30833
30901
30876
30810
30731
30644
30496
30362
30288
30292
30365
30430
30497
30510
30541
30575
30721
30873
30999
31067
31078
31112
31068
31001
30873
30782
30763
30790
30829
30835
30805
30743
30653
30624
30639
30682
30707
30696
30697
30726
30810
30937
31073
31217
31315
31236
30982
30635
30380
30467
30712
31008
31285
31506
31647
31744
31828
32001
32340
32664
32906
33059
33098
33179
33345
33660
34011
34229
34249
34253
34441
34675
34757
34702
34585
34400
34161
33908
33617
33303
33017
32823
32657
32455
32240
32028
31880
31685
31442
31218
31083
30998
30836
30668
30478
30354
30373
30436
30540
30634
30716
30848
30983
31031
31021
30973
30892
30872
30810
30743
30670
30545
30390
30288
30317
30321
30306
30253
30219
30329
30615
31019
31693
33035
35234
38273
41689
45525
49731
54231
58765
62800
63890
63947
63911
63732
62519
58229
51762
44360
37233
31153
26712
23914
22609
22267
22386
22774
23382
24305
25319
26412
27344
28121
28675
29055
29428
29843
30151
30290
30282
30154
29974
29915
29949
30006
30021
29985
29979
30021
30098
30161
30238
30340
30382
30335
30287
30281
30287
30290
30341
30450
30651
30832
31017
31131
31191
31157
31073
31076
31176
31306
31442
31499
31512
31527
31656
31823
32019
32129
32091
32047
32079
32154
32180
32151
32204
32436
32823
33270
33626
33838
33949
34062
34154
34244
34308
34405
34521
34679
34786
34784
34696
34617
34628
34759
34953
35261
35665
36170
36708
37202
37595
37839
37963
38034
38075
38054
38074
38148
38254
38334
38289
38166
37981
37947
38033
38161
38390
38651
38903
39130
39132
38855
38407
38017
37806
37671
37486
37201
36821
36444
36026
35492
34918
34325
33782
33397
33052
32684
32268
31898
31649
31446
31279
31079
30855
30533
30311
30237
30292
30363
30424
30415
30369
30272
30154
30189
30325
30438
30418
30255
30153
30111
30153
30210
30206
30168
30161
30242
30289
30308
30310
30298
30299
30342
30440
30579
30734
30920
31031
31074
31064
31012
30942
30902
30900
30958
30984
30930
30861
30839
30914
31065
31197
31253
31228
31106
30940
30760
30672
30739
30830
30961
31069
31090
31178
31149
31118
31109
31092
31061
30929
30797
30733
30834
30931
30989
30984
30953
30940
30876
30821
30799
30790
30841
30928
31003
30955
30853
30731
30692
30734
30780
30929
31039
31116
31161
31099
31068
31054
31028
31056
31146
31209
31185
31053
30885
30809
30839
30952
31055
31133
31212
31218
31190
31063
30827
30553
30398
30424
30593
30831
30977
31066
31117
31183
31236
31317
31390
31463
31595
31718
31907
32086
32150
32106
32010
32107
32305
32682
33077
33414
33721
33807
33804
33874
33905
33853
33863
33952
34177
34464
34715
34867
34914
34817
34532
34083
33583
33087
32706
32382
32120
31881
31714
31604
31482
31387
31270
31082
30895
30825
30826
30765
30666
30544
30547
30643
30676
30662
30547
30502
30582
30690
30761
30803
30823
30871
30933
30999
30994
30952
30829
30635
30469
30308
30096
29946
29949
30201
30660
31082
31779
33138
35401
38417
41806
45568
49682
54101
58683
62820
63896
63945
63912
63704
62305
57655
50890
43343
36298
30489
26296
23820
22785
22721
23069
23686
24442
25289
26177
27054
27852
28668
29278
29763
30099
30252
30347
30365
30352
30284
30124
29972
29943
29909
29908
29955
30034
30124
30197
30260
30284
30319
30343
30362
30429
30589
30746
30879
31012
31101
31213
31315
31370
31355
31280
31216
31209
31340
31509
31644
31738
31778
31795
31855
31947
32108
32278
32409
32513
32629
32754
32878
33041
33152
33224
33329
33387
33354
33331
33258
33283
33394
33557
33847
34205
34639
35049
35312
35483
35469
35381
35300
35444
35763
36173
36628
36978
37263
37451
37526
