3605
3603
3606
3594
3594
3605
3600
3609
3603
3603
3601
3612
3608
3608
3605
3600
3617
3611
3611
3607
3610
3602
3602
3602
3605
3605
3596
3607
3607
3604
3614
3616
3605
3605
3614
3620
3613
3611
3611
3597
3615
3610
3599
3599
3616
3622
3613
3610
3610
3618
3616
3614
3618
3618
3620
3625
3624
3616
3616
3621
3624
3624
3624
3624
3625
3632
3627
3627
3624
3626
3625
3624
3624
3632
3627
3630
3632
3632
3620
3633
3647
3631
3631
3631
3634
3636
3635
3635
3632
3638
3630
3641
3641
3628
3641
3633
3642
3642
3629
3644
3620
3638
3638
3632
3636
3637
3636
3636
3642
3640
3630
3630
3640
3641
3638
3637
3637
3635
3619
3638
3635
3635
3626
3635
3638
3638
3638
3641
3635
3639
3636
3636
3633
3647
3637
3639
3639
3638
3646
3645
3651
3651
3650
3644
3640
3644
3644
3648
3640
3652
3650
3650
3660
3649
3652
3661
3661
3661
3659
3638
3638
3648
3653
3670
3663
3663
3654
3658
3666
3668
3668
3668
3662
3669
3673
3673
3673
3678
3684
3675
3675
3687
3675
3681
3672
3672
3672
3686
3693
3680
3680
3684
3695
3682
3687
3687
3692
3693
3693
3695
3695
3684
3702
3696
3699
3699
3707
3701
3694
3694
3708
3704
3714
3692
3692
3712
3707
3704
3714
3714
3729
3712
3708
3717
3717
3718
3720
3720
3714
3714
3727
3718
3720
3731
3731
3723
3737
3717
3734
3734
3735
3730
3726
3733
3733
3739
3730
3738
3733
3733
3736
3739
3743
3744
3744
3741
3744
3748
3748
3740
3745
3750
3749
3749
3747
3742
3751
3773
3773
3746
3747
3756
3749
3749
3759
3753
3760
3763
3763
3760
3753
3770
3765
3765
3759
3766
3762
3764
3764
3768
3763
3775
3771
3771
3770
3780
3775
3777
3777
3776
3772
3778
3778
3765
3778
3794
3771
3771
3777
3780
3788
3777
3777
3782
3792
3794
3783
3783
3776
3785
3784
3792
3792
3788
3799
3796
3797
3797
3799
3802
3789
3804
3804
3809
3801
3797
3804
3804
3810
3806
3809
3816
3816
3812
3808
3815
3831
3831
3816
3813
3810
3810
3815
3812
3810
3804
3804
3793
3796
3786
3785
3785
3787
3787
3785
3775
3775
3777
3751
3754
3750
3750
3743
3724
3735
3728
3728
3713
3709
3712
3697
3697
3686
3684
3683
3671
3671
3655
3654
3654
3645
3645
3635
3642
3627
3627
3627
3619
3622
3610
3610
3611
3604
3616
3607
3607
3603
3598
3592
3577
3577
3601
3583
3588
3596
3596
3581
3583
3589
3576
3576
3582
3583
3583
3589
3589
3596
3589
3582
3589
3589
3581
3586
3587
3580
3580
3587
3585
3575
3592
3592
3595
3589
3592
3592
3590
3589
3610
3594
3594
3588
3585
3592
3601
3601
3595
3607
3599
3599
3599
3587
3597
3604
3599
3599
3603
3594
3606
3608
3608
3599
3603
3607
3610
3610
3609
3613
3613
3602
3602
3610
3608
3607
3610
3610
3614
3615
3603
3618
3618
3607
3613
3614
3614
3611
3609
3621
3616
3616
3611
3608
3619
3618
3618
3613
3627
3624
3619
3619
3616
3610
3620
3621
3621
3614
3617
3623
3617
3617
3620
3621
3619
3614
3614
3620
3623
3617
3613
3613
3620
3613
3617
3620
3620
3612
3619
3618
3621
3621
3618
3616
3614
3614
3620
3616
3618
3615
3615
3620
3615
3625
3611
3611
3621
3619
3626
3623
3623
3628
3617
3623
3634
3634
3616
3636
3627
3633
3633
3621
3632
3631
3640
3640
3633
3623
3641
3639
3639
3638
3642
3645
3642
3642
3643
3666
3646
3644
3644
3645
3651
3653
3653
3656
3648
3661
3654
3654
3646
3644
3666
3658
3658
3668
3669
3665
3665
3665
3663
3675
3648
3654
3654
3665
3674
3678
3668
3668
3668
3678
3675
3678
3678
3688
3683
3677
3682
3682
3675
3683
3693
3687
3687
3683
3688
3692
3696
3696
3688
3689
3688
3688
3696
3693
3701
3701
3701
3700
3689
3700
3705
3705
3714
3708
3707
3699
3699
3703
3709
3709
3716
3716
3704
3711
3723
3710
3710
3723
3723
3721
3707
3707
3720
3722
3724
3714
3714
3731
3724
3721
3727
3727
3728
3736
3730
3733
3733
3734
3732
3712
3712
3737
3734
3738
3727
3727
3734
3735
3742
3741
3741
3744
3745
3742
3742
3742
3742
3743
3748
3757
3757
3746
3752
3749
3751
3751
3752
3762
3754
3752
3752
3746
3757
3758
3763
3763
3756
3761
3758
3762
3762
3765
3767
3771
3766
3766
3765
3781
3773
3773
3767
3776
3783
3786
3786
3783
3774
3775
3774
3774
3786
3782
3781
3779
3779
3781
3783
3785
3779
3779
3782
3778
3787
3785
3785
3794
3795
3796
3770
3770
3785
3785
3769
3763
3763
3766
3768
3758
3769
3769
3748
3742
3744
3733
3733
3737
3726
3725
3725
3706
3705
3700
3692
3692
3691
3680
3678
3668
3668
3652
3651
3639
3636
3636
3630
3634
3620
3626
3626
3618
3624
3603
3613
3613
3606
3604
3597
3590
3590
3600
3597
3591
3601
3601
3599
3590
3578
3592
3592
3585
3583
3595
3595
3587
3581
3598
3585
3585
3582
3578
3586
3587
3587
3579
3574
3583
3571
3571
3573
3592
3585
3574
3574
3588
3587
3587
3593
3593
3595
3591
3600
3595
3595
3590
3584
3593
3592
3592
3595
3604
3599
3599
3599
3595
3606
3607
3604
3604
3605
3608
3602
3602
3603
3607
3618
3610
3610
3609
3604
3611
3617
3617
3616
3617
3620
3618
3618
3624
3617
3621
3622
3622
3617
3623
3621
3625
3625
3626
3623
3622
3625
3625
3623
3623
3636
3631
3631
3620
3624
3627
3630
3630
3620
3625
3623
3624
3624
3608
3622
3635
3635
3638
3627
3633
3625
3625
3628
3621
3615
3613
3613
3624
3621
3626
3627
3627
3631
3621
3629
3632
3632
3632
3628
3631
3632
3632
3624
3625
3636
3634
3634
3631
3641
3635
3628
3628
3633
3634
3633
3638
3638
3636
3639
3639
3640
3640
3650
3635
3644
3644
3646
3646
3645
3650
3650
3651
3641
3657
3648
3648
3655
3656
3652
3666
3666
3668
3664
3662
3655
3655
3660
3667
3667
3675
3675
3669
3661
3668
3671
3671
3677
3674
3672
3674
3674
3688
3680
3676
3672
3672
3681
3685
3693
3685
3685
3690
3689
3689
3689
3691
3695
3703
3691
3691
3697
3694
3700
3699
3699
3704
3692
3703
3696
3696
3708
3715
3712
3718
3718
3718
3725
3708
3714
3714
3714
3719
3717
3721
3721
3717
3730
3722
3731
3731
3719
3733
3713
3719
3719
3728
3727
3731
3751
3751
3738
3730
3734
3734
3733
3735
3745
3742
3742
3735
3741
3744
3732
3732
3738
3746
3750
3753
3753
3747
3742
3744
3754
3754
3739
3755
3754
3755
3755
3755
3755
3751
3759
3759
3740
3767
3768
3763
3763
3768
3765
3767
3781
3781
3758
3768
3769
3769
3769
3779
3773
3765
3765
3769
3780
3781
3773
3773
3788
3773
3779
3777
3777
3773
3780
3787
3784
3784
3790
3780
3783
3793
3793
3788
3791
3784
3804
3804
3813
3794
3795
3793
3793
3793
3801
3795
3796
3796
3810
3799
3806
3799
3799
3794
3806
3800
3810
3810
3799
3798
3811
3811
3829
3796
3818
3812
3812
3819
3818
3816
3823
3823
3820
3818
3811
3813
3813
3816
3811
3815
3818
3818
3807
3811
3818
3806
3806
3799
3808
3794
3787
3787
3773
3781
3766
3767
3767
3750
3758
3749
3739
3739
3741
3740
3718
3718
3719
3699
3702
3689
3689
3695
3687
3672
3665
3665
3662
3674
3653
3644
3644
3645
3633
3642
3628
3628
3628
3626
3626
3622
3622
3615
3609
3607
3613
3613
3614
3608
3596
3602
3602
3597
3588
3591
3595
3595
3601
3604
3596
3587
3587
3589
3593
3598
3598
3598
3585
3598
3595
3595
3598
3597
3598
3601
3601
3590
3597
3606
3602
3602
3597
3592
3601
3604
3604
3604
3592
3609
3617
3617
3596
3610
3597
3622
3622
3612
3612
3609
3610
3610
3611
3615
3614
3610
3610
3608
3636
3631
3619
3619
3618
3618
3615
3615
3612
3624
3626
3630
3630
3620
3620
3622
3629
3629
3625
3626
3635
3637
3637
3630
3632
3608
3621
3621
3633
3624
3642
3634
3634
3635
3639
3624
3630
3630
3635
3634
3628
3646
3646
3632
3628
3632
3633
3633
3630
3632
3636
3635
3635
3634
3638
3635
3635
3631
3634
3635
3635
3635
3631
3630
3640
3642
3642
3636
3635
3635
3630
3630
3631
3628
3640
3634
3634
3648
3640
3651
3643
3643
3642
3643
3644
3639
3639
3639
3648
3641
3646
3646
3654
3640
3641
3662
3662
3650
3645
3652
3651
3651
3648
3660
3649
3649
3661
3658
3653
3665
3665
3657
3658
3664
3665
3665
3659
3668
3669
3668
3668
3681
3671
3677
3664
3664
3687
3683
3672
3676
3676
3678
3689
3678
3693
3693
3689
3693
3691
3686
3686
3691
3696
3689
3690
3690
3706
3698
3700
3700
3704
3697
3703
3700
3700
3704
3698
3709
3730
3730
3702
3712
3708
3707
3707
3705
3706
3722
3707
3707
3710
3719
3715
3722
3722
3722
3729
3731
3724
3724
3727
3729
3734
3720
3720
3725
3734
3718
3743
3743
3737
3741
3732
3738
3738
3744
3743
3744
3744
3743
3743
3749
3750
3750
3750
3744
3741
3748
3748
3750
3755
3749
3752
3752
3753
3752
3762
3758
3758
3758
3765
3757
3758
3758
3765
3772
3765
3765
3765
3762
3767
3767
3773
3773
3778
3774
3771
3784
3784
3773
3776
3777
3778
3778
3775
3775
3781
3781
3784
3778
3789
3785
3785
3784
3792
3789
3794
3794
3806
3795
3792
3794
3794
3777
3794
3796
3799
3799
3800
3803
3807
3805
3805
3802
3804
3799
3802
3802
3820
3820
3811
3812
3812
3818
3814
3812
3805
3805
3816
3817
3813
3821
3821
3821
3821
3820
3820
3819
3822
3831
3829
3829
3835
3824
3832
3829
3829
3831
3832
3831
3839
3839
3838
3837
3843
3839
3839
3843
3847
3851
3846
3846
3837
3852
3847
3842
3842
3846
3849
3838
3833
3833
3830
3847
3830
3825
3825
3828
3827
3832
3807
3807
3804
3809
3801
3801
3795
3791
3781
3772
3772
3764
3759
3754
3757
3757
3738
3730
3730
3719
3719
3720
3709
3695
3696
3696
3699
3690
3677
3670
3670
3669
3662
3648
3663
3663
3651
3645
3646
3644
3644
3644
3643
3635
3638
3638
3643
3633
3631
3631
3628
3623
3628
3618
3618
3620
3626
3627
3618
3618
3624
3615
3628
3622
3622
3619
3620
3628
3633
3633
3622
3628
3623
3628
3628
3621
3619
3621
3638
3638
3628
3623
3626
3628
3628
3628
3628
3624
3634
3634
3626
3627
3633
3637
3637
3641
3640
3630
3630
3642
3640
3648
3639
3639
3634
3642
3642
3642
3642
3637
3642
3642
3641
3641
3653
3644
3647
3661
3661
3644
3651
3651
3647
3647
3650
3657
3640
3650
3650
3655
3652
3644
3658
3658
3651
3661
3653
3657
3657
3653
3660
3659
3659
3653
3655
3664
3656
3656
3666
3656
3662
3661
3661
3650
3655
3648
3655
3655
3668
3652
3645
3658
3658
3665
3658
3657
3655
3655
3658
3656
3660
3653
3653
3658
3670
3656
3651
3651
3652
3653
3656
3651
3651
3652
3655
3655
3659
3659
3664
3668
3664
3664
3659
3675
3667
3670
3670
3661
3657
3669
3665
3665
3675
3672
3662
3672
3672
3675
3668
3665
3672
3672
3673
3694
3686
3678
3678
3666
3686
3671
3682
3682
3683
3691
3682
3686
3686
3686
3693
3688
3690
3690
3701
3698
3696
3694
3694
3703
3699
3684
3684
3699
3697
3701
3705
3705
3706
3699
3710
3707
3707
3709
3708
3717
3721
3721
3714
3714
3726
3715
3715
3716
3721
3722
3725
3725
3725
3725
3729
3723
3723
3722
3723
3731
3741
3741
3734
3738
3738
3731
3731
3723
3744
3743
3743
3730
3741
3741
3743
3743
3738
3730
3743
3756
3756
3755
3747
3737
3748
3748
3756
3752
3752
3749
3749
3757
3753
3755
3760
3760
3753
3763
3763
3759
3759
3767
3758
3764
3748
3748
3776
3769
3761
3764
3764
3762
3776
3770
3759
3759
3769
3783
3777
3777
3779
3771
3776
3780
3780
3777
3775
3781
3780
3780
3792
3775
3792
3788
3788
3784
3780
3787
3787
3787
3793
3788
3785
3800
3800
3799
3793
3797
3793
3793
3798
3802
3797
3796
3796
3799
3801
3803
3809
3809
3803
3801
3803
3803
3803
3812
3813
3809
3809
3810
3806
3823
3815
3815
3811
3805
3814
3816
3816
3820
3813
3823
3805
3805
3803
3817
3812
3824
3824
3820
3819
3821
3825
3825
3825
3827
3825
3826
3826
3832
3832
3824
3825
3825
3824
3824
3817
3815
3815
3804
3809
3809
3792
3792
3794
3790
3785
3785
3772
3767
3778
3766
3766
3751
3749
3759
3734
3734
3737
3725
3723
3714
3714
3711
3702
3702
3695
3695
3701
3686
3668
3667
3667
3672
3658
3661
3658
3658
3652
3647
3645
3643
3643
3636
3641
3638
3631
3631
3646
3628
3631
3626
3626
3612
3625
3611
3611
3624
3624
3626
3631
3631
3621
3619
3620
3620
3620
3621
3614
3639
3612
3612
3615
3626
3621
3619
3619
3627
3633
3630
3629
3629
3630
3629
3628
3618
3618
3628
3643
3637
3632
3632
3635
3637
3636
3638
3638
3643
3645
3646
3646
3644
3642
3642
3654
3654
3653
3656
3655
3656
3656
3656
3660
3669
3656
3656
3650
3651
3670
3668
3668
3657
3662
3664
3664
3664
3661
3666
3673
3667
3667
3662
3655
3664
3667
3667
3669
3667
3669
3670
3670
3668
3672
3668
3654
3654
3664
3664
3661
3661
3667
3664
3668
3667
3667
3666
3662
3652
3657
3657
3652
3647
3666
3656
3656
3666
3654
3659
3666
3666
3658
3662
3673
3665
3665
3663
3663
3662
3670
3670
3664
3662
3660
3673
3673
3664
3684
3669
3659
3659
3676
3667
3667
3668
3668
3669
3670
3669
3669
3676
3671
3674
3677
3677
3677
3668
3682
3673
3673
3677
3680
3669
3678
3678
3680
3692
3689
3682
3682
3684
3687
3688
3701
3701
3693
3695
3689
3691
3691
3698
3696
3690
3705
3705
3702
3704
3708
3706
3706
3704
3701
3707
3707
3708
3704
3713
3708
3708
3713
3702
3718
3713
3713
3718
3727
3725
3723
3723
3724
3721
3725
3721
3721
3724
3725
3733
3728
3728
3733
3734
3728
3736
3736
3728
3743
3748
3736
3736
3739
3738
3742
3746
3746
3745
3750
3740
3753
3753
3747
3756
3729
3729
3756
3739
3751
3750
3750
3752
3756
3760
3762
3762
3762
3760
3755
3760
3760
3765
3761
3760
3764
3764
3766
3764
3770
3768
3768
3765
3773
3770
3768
3768
3764
3773
3777
3772
3772
3785
3771
3790
3776
3776
3778
3781
3777
3777
3781
3780
3791
3801
3801
3782
3783
3784
3793
3793
3793
3785
3795
3792
3792
3795
3799
3800
3797
3797
3791
3829
3803
3789
3789
3799
3806
3800
3805
3805
3799
3805
3808
3798
3798
3804
3805
3808
3816
3816
3807
3812
3801
3819
3819
3813
3814
3816
3816
3816
3814
3825
3818
3818
3822
3818
3821
3827
3827
3825
3819
3832
3828
3828
3813
3819
3836
3837
3837
3831
3835
3825
3829
3829
3836
3839
3849
3837
3837
3838
3843
3836
3824
3824
3835
3833
3826
3822
3822
3814
3821
3815
3814
3814
3806
3800
3800
3800
3791
3790
3776
3769
3769
3781
3767
3753
3748
3748
3741
3734
3731
3723
3723
3708
3710
3717
3696
3696
3696
3681
3676
3674
3674
3672
3675
3659
3655
3655
3655
3648
3643
3647
3647
3643
3634
3644
3630
3630
3634
3625
3635
3628
3628
3621
3621
3606
3606
3620
3621
3626
3613
3613
3626
3614
3616
3615
3615
3621
3611
3611
3619
3619
3623
3610
3619
3616
3616
3619
3622
3622
3613
3613
3622
3621
3621
3631
3631
3628
3626
3636
3626
3626
3617
3630
3621
3625
3625
3621
3626
3628
3630
3630
3618
3631
3628
3628
3637
3635
3637
3623
3623
3634
3633
3637
3631
3631
3639
3638
3645
3644
3644
3634
3647
3644
3636
3636
3645
3650
3638
3644
3644
3639
3644
3648
3640
3640
3647
3646
3636
3654
3654
3650
3646
3636
3654
3654
3640
3650
3651
3651
3651
3645
3651
3647
3647
3650
3649
3656
3646
3646
3662
3653
3648
3655
3655
3651
3655
3656
3670
3670
3651
3649
3648
3650
3650
3646
3654
3637
3654
3654
3647
3652
3653
3646
3646
3656
3647
3653
3655
3655
3655
3657
3656
3663
3663
3654
3658
3658
3658
3658
3661
3664
3656
3656
3662
3659
3685
3665
3665
3663
3663
3668
3663
3663
3668
3670
3665
3673
3673
3655
3668
3671
3677
3677
3683
3686
3680
3679
3679
3684
3686
3684
3680
3680
3683
3693
3690
3685
3685
3681
3691
3696
3687
3687
3699
3698
3699
3699
3715
3699
3707
3700
3700
3709
3706
3711
3709
3709
3708
3704
3708
3718
3718
3710
3721
3724
3725
3725
3715
3716
3724
3717
3717
3726
3723
3729
3735
3735
3732
3734
3727
3740
3740
3742
3735
3739
3736
3736
3737
3745
3735
3742
3742
3738
3743
3738
3738
3741
3742
3750
3753
3753
3748
3751
3750
3749
3749
3757
3756
3762
3745
3745
3751
3761
3769
3757
3757
3759
3767
3768
3763
3763
3769
3778
3779
3772
3772
3781
3771
3764
3776
3776
3770
3772
3779
3776
3776
3776
3785
3777
3779
3779
3791
3782
3785
3785
3787
3787
3787
3797
3797
3788
3771
3794
3789
3789
3790
3798
3803
3803
3803
3804
3796
3794
3802
3802
3802
3811
3793
3797
3797
3800
3812
3802
3805
3805
3813
3796
3806
3802
3802
3813
3814
3804
3819
3819
3819
3827
3807
3820
3820
3818
3827
3822
3822
3829
3840
3840
3829
3829
3821
3828
3830
3831
3831
3827
3849
3838
3835
3835
3831
3836
3839
3839
3839
3840
3849
3837
3848
3848
3843
3837
3839
3841
3841
3838
3842
3827
3834
3834
3830
3814
3816
3818
3818
3818
3815
3807
3791
3791
3786
3791
3790
3790
3777
3768
3763
3748
3748
3750
3740
3734
3718
3718
3719
3713
3705
3693
3693
3682
3685
3678
3670
3670
3670
3677
3674
3654
3654
3648
3643
3633
3642
3642
3636
3634
3626
3629
3629
3625
3625
3621
3610
3610
3615
3619
3611
3611
3609
3603
3613
3615
3615
3609
3604
3608
3602
3602
3608
3606
3618
3605
3605
3604
3602
3616
3609
3609
3611
3606
3588
3609
3609
3594
3606
3608
3610
3610
3610
3623
3613
3615
3615
3621
3617
3615
3624
3624
3620
3615
3618
3621
3621
3630
3622
3619
3619
3626
3613
3634
3628
3628
3617
3625
3625
3632
3632
3630
3626
3634
3628
3628
3632
3631
3642
3635
3635
3638
3634
3638
3637
3637
3635
3645
3654
3640
3640
3636
3636
3644
3637
3637
3648
3643
3637
3642
3642
3641
3637
3649
3642
3642
3640
3646
3644
3644
3643
3636
3643
3630
3630
3639
3640
3645
3643
3643
3638
3645
3646
3648
3648
3645
3644
3648
3650
3650
3641
3641
3649
3647
3647
3641
3642
3645
3649
3649
3638
3643
3642
3635
3635
3646
3650
3649
3643
3643
3649
3640
3654
3649
3649
3646
3649
3650
3650
3654
3652
3652
3656
3656
3658
3656
3655
3665
3665
3658
3653
3657
3659
3659
3654
3668
3664
3663
3663
3664
3671
3669
3670
3670
3673
3671
3672
3668
3668
3669
3678
3682
3668
3668
3683
3685
3685
3685
3685
3682
3679
3690
3684
3684
3687
3695
3684
3684
3691
3696
3693
3695
3695
3699
3694
3703
3700
3700
3702
3704
3718
3703
3703
3713
3707
3714
3729
3729
3712
3717
3714
3709
3709
3718
3717
3726
3724
3724
3722
3725
3724
3731
3731
3729
3732
3731
3748
3748
3741
3726
3735
3738
3738
3744
3737
3738
3738
3738
3741
3759
3741
3741
3748
3743
3746
3753
3753
3748
3751
3754
3757
3757
3738
3756
3759
3754
3754
3757
3769
3754
3773
3773
3762
3760
3764
3756
3756
3762
3773
3764
3771
3771
3764
3775
3772
3764
3764
3772
3778
3773
3785
3785
3786
3781
3779
3779
3785
3781
3782
3779
3779
3781
3786
3791
3781
3781
3766
3784
3793
3792
3792
3789
3790
3788
3792
3792
3804
3785
3793
3799
3799
3797
3799
3797
3792
3792
3799
3797
3814
3797
3797
3803
3801
3801
3812
3812
3815
3817
3815
3815
3814
3809
3819
3814
3814
3817
3810
3827
3817
3817
3822
3817
3817
3827
3827
3821
3820
3830
3831
3831
3830
3821
3826
3824
3824
3825
3826
3820
3821
3821
3820
3821
3810
3814
3814
3797
3805
3799
3786
3786
3785
3773
3783
3771
3771
3769
3750
3758
3758
3740
3733
3722
3726
3726
3713
3704
3701
3692
3692
3689
3688
3684
3671
3671
3669
3659
3663
3651
3651
3653
3642
3638
3628
3628
3633
3635
3619
3625
3625
3616
3611
3615
3610
3610
3608
3607
3611
3613
3613
3605
3623
3602
3597
3597
3603
3605
3603
3603
3612
3612
3606
3609
3609
3608
3600
3605
3603
3603
3608
3609
3607
3608
3608
3609
3606
3609
3612
3612
3619
3622
3611
3609
3609
3620
3608
3619
3618
3618
3620
3623
3620
3618
3618
3626
3633
3633
3628
3628
3632
3633
3637
3630
3630
3628
3636
3636
3636
3646
3633
3629
3646
3646
3640
3641
3637
3645
3645
3642
3629
3639
3642
3642
3652
3645
3640
3645
3645
3649
3655
3645
3637
3637
3631
3645
3649
3644
3644
3643
3652
3648
3645
3645
3646
3637
3648
3644
3644
3648
3645
3660
3660
3647
3648
3654
3645
3645
3641
3632
3641
3639
3639
3635
3646
3634
3644
3644
3644
3638
3650
3655
3655
3641
3636
3642
3637
3637
3644
3641
3628
3626
3626
3644
3652
3648
3647
3647
3665
3646
3649
3647
3647
3639
3646
3647
3650
3650
3653
3646
3639
3639
3657
3654
3655
3653
3653
3653
3655
3665
3658
3658
3659
3659
3664
3672
3672
3664
3654
3661
3651
3651
3676
3684
3676
3677
3677
3671
3665
3679
3690
3690
3673
3678
3666
3680
3680
3679
3686
3686
3687
3687
3691
3688
3687
3699
3699
3699
3694
3690
3690
3700
3694
3695
3700
3700
3702
3698
3699
3704
3704
3701
3707
3708
3707
3707
3709
3726
3713
3711
3711
3708
3719
3711
3730
3730
3724
3717
3722
3717
3717
3712
3725
3725
3729
3729
3732
3726
3724
3727
3727
3737
3735
3732
3732
3739
3738
3743
3737
3737
3731
3735
3743
3733
3733
3752
3747
3744
3738
3738
3748
3743
3739
3754
3754
3756
3745
3751
3749
3749
3749
3749
3754
3756
3756
3752
3757
3762
3752
3752
3750
3759
3759
3775
3775
3767
3759
3764
3758
3758
3761
3768
3770
3770
3764
3769
3792
3772
3772
3772
3774
3774
3777
3777
3776
3767
3779
3781
3781
3777
3778
3783
3779
3779
3783
3781
3785
3791
3791
3794
3789
3777
3790
3790
3779
3794
3800
3798
3798
3796
3792
3797
3791
3791
3804
3798
3802
3799
3799
3799
3791
3801
3801
3798
3791
3797
3791
3791
3786
3776
3787
3784
3784
3770
3766
3773
3755
3755
3747
3740
3741
3731
3731
3734
3721
3706
3719
3719
3709
3693
3695
3679
3679
3669
3676
3682
3662
3662
3644
3654
3643
3645
3645
3632
3634
3633
3621
3621
3614
3615
3626
3626
3612
3595
3598
3603
3603
3603
3596
3600
3575
3575
3601
3591
3600
3596
3596
3587
3600
3592
3589
3589
3595
3597
3598
3598
3598
3604
3590
3600
3593
3593
3594
3602
3589
3593
3593
3617
3597
3603
3596
3596
3606
3604
3606
3606
3596
3611
3604
3610
3610
3615
3609
3626
3611
3611
3618
3607
3625
3620
3620
3619
3616
3623
3637
3637
3627
3623
3628
3625
3625
3629
3633
3626
3633
3633
3645
3625
3639
3630
3630
3640
3644
3632
3637
3637
3631
3637
3643
3640
3640
3643
3646
3644
3644
3642
3628
3651
3647
3647
3644
3644
3641
3638
3638
3640
3641
3638
3639
3639
3636
3640
3646
3640
3640
3632
3638
3642
3630
3630
3640
3640
3639
3637
3637
3636
3640
3625
3630
3630
3641
3646
3644
3647
3647
3638
3634
3636
3642
3642
3641
3634
3643
3643
3658
3633
3648
3641
3641
3645
3639
3644
3637
3637
3647
3644
3646
3646
3646
3643
3649
3646
3651
3651
3645
3658
3651
3664
3664
3654
3659
3667
3661
3661
3660
3659
3661
3660
3660
3659
3665
3667
3670
3670
3665
3666
3671
3671
3669
3673
3680
3674
3674
3682
3669
3671
3675
3675
3681
3677
3684
3684
3684
3687
3676
3684
3685
3685
3687
3694
3689
3691
3691
3695
3693
3692
3701
3701
3696
3699
3696
3711
3711
3707
3696
3706
3709
3709
3704
3710
3719
3712
3712
3717
3708
3707
3707
3716
3715
3713
3719
3719
3712
3717
3718
3730
3730
3730
3718
3724
3732
3732
3728
3726
3727
3730
3730
3732
3735
3738
3737
3737
3739
3743
3737
3743
3743
3728
3747
3737
3731
3731
3741
3743
3747
3744
3744
3744
3749
3743
3743
3745
3754
3751
3743
3743
3747
3748
3759
3760
3760
3754
3761
3761
3761
3761
3761
3759
3756
3763
3763
3755
3770
3762
3766
3766
3763
3770
3764
3772
3772
3770
3777
3766
3764
3764
3775
3778
3762
3772
3772
3786
3783
3782
3769
3769
3778
3777
3782
3782
3779
3778
3789
3786
3786
3784
3786
3787
3789
3789
3797
3789
3794
3785
3785
3797
3793
3788
3794
3794
3793
3793
3788
3792
3792
3797
3783
3786
3778
3778
3773
3774
3753
3763
3763
3755
3747
3744
3743
3743
3735
3712
3721
3709
3709
3705
3696
3691
3691
3687
3679
3691
3664
3664
3663
3647
3647
3647
3647
3633
3626
3619
3622
3622
3605
3608
3600
3606
3606
3601
3603
3592
3584
3584
3586
3582
3582
3568
3568
3573
3583
3571
3573
3573
3577
3574
3577
3565
3565
3578
3573
3573
3573
3583
3564
3570
3574
3574
3569
3564
3572
3557
3557
3573
3574
3577
3579
3579
3562
3569
3573
3581
3581
3566
3572
3583
3581
3581
3588
3583
3581
3583
3583
3588
3582
3583
3582
3582
3585
3586
3594
3587
3587
3589
3589
3585
3571
3571
3585
3593
3595
3595
3575
3582
3598
3598
3598
3596
3592
3600
3588
3588
3596
3597
3599
3607
3607
3607
3604
3607
3605
3605
3605
3608
3601
3610
3610
3602
3609
3605
3609
3609
3599
3612
3593
3605
3605
3597
3603
3612
3600
3600
3602
3613
3597
3597
3609
3609
3613
3611
3611
3607
3607
3610
3605
3605
3612
3616
3607
3614
3614
3613
3606
3612
3610
3610
3609
3607
3611
3611
3611
3612
3609
3610
3611
3611
3617
3606
3608
3605
3605
3609
3602
3605
3617
3617
3610
3605
3616
3618
3618
3614
3615
3616
3616
3619
3621
3627
3622
3622
3626
3608
3640
3625
3625
3617
3620
3648
3627
3627
3633
3634
3648
3632
3632
3636
3635
3638
3645
3645
3639
3644
3636
3645
3645
3623
3653
3654
3660
3660
3657
3655
3650
3649
3649
3658
3666
3669
3659
3659
3661
3670
3664
3664
3656
3671
3678
3671
3671
3677
3662
3677
3672
3672
3669
3664
3678
3675
3675
3678
3680
3673
3685
3685
3684
3691
3690
3687
3687
3685
3691
3696
3688
3688
3669
3706
3689
3693
3693
3697
3702
3704
3699
3699
3705
3701
3705
3706
3706
3702
3704
3716
3716
3704
3700
3713
3712
3712
3714
3709
3715
3710
3710
3712
3716
3720
3711
3711
3730
3719
3714
3720
3720
3715
3727
3719
3725
3725
3729
3726
3730
3721
3721
3732
3730
3729
3732
3732
3750
3744
3738
3742
3742
3734
3740
3734
3739
3739
3727
3741
3731
3731
3747
3741
3736
3744
3744
3753
3741
3753
3743
3743
3742
3753
3756
3746
3746
3752
3752
3753
3750
3750
3757
3760
3772
3760
3760
3757
3765
3762
3764
3764
3764
3765
3767
3760
3760
3771
3774
3773
3773
3773
3777
3765
3773
3773
3774
3778
3777
3780
3780
3773
3774
3773
3778
3778
3775
3768
3771
3762
3762
3758
3745
3746
3746
3746
3737
3754
3736
3713
3713
3703
3720
3707
3701
3701
3692
3683
3683
3668
3668
3663
3658
3650
3644
3644
3638
3625
3618
3621
3621
3613
3608
3611
3611
3603
3596
3598
3598
3598
3596
3583
3592
3583
3583
3570
3569
3575
3566
3566
3576
3562
3567
3564
3564
3561
3559
3555
3557
3557
3555
3554
3559
3561
3561
3559
3562
3555
3557
3557
3553
3564
3557
3572
3572
3558
3561
3561
3563
3563
3564
3560
3565
3565
3560
3561
3578
3551
3551
3569
3559
3564
3567
3567
3572
3565
3572
3566
3566
3574
3565
3578
3578
3578
3568
3574
3589
3585
3585
3582
3583
3567
3587
3587
3578
3593
3586
3591
3591
3588
3580
3592
3592
3592
3590
3578
3587
3598
3598
3584
3602
3593
3593
3599
3595
3595
3594
3594
3588
3592
3597
3594
3594
3610
3600
3600
3597
3597
3601
3604
3599
3585
3585
3595
3602
3595
3603
3603
3602
3602
3611
3610
3610
3611
3607
3617
3606
3606
3605
3613
3607
3603
3603
3603
3601
3607
3607
3611
3599
3608
3605
3605
3603
3597
3606
3604
3604
3614
3610
3616
3602
3602
3605
3612
3624
3613
3613
3608
3618
3612
3617
3617
3620
3622
3614
3623
3623
3622
3621
3623
3613
3613
3620
3626
3624
3632
3632
3633
3639
3620
3630
3630
3628
3639
3636
3636
3640
3639
3635
3648
3648
3640
3647
3648
3639
3639
3641
3629
3650
3658
3658
3652
3653
3651
3675
3675
3664
3662
3661
3653
3653
3661
3658
3667
3665
3665
3666
3664
3669
3679
3679
3669
3679
3672
3678
3678
3673
3674
3679
3665
3665
3682
3682
3696
3696
3679
3678
3691
3687
3687
3693
3690
3695
3677
3677
3693
3696
3697
3704
3704
3694
3695
3702
3702
3702
3697
3699
3702
3704
3704
3692
3699
3709
3708
3708
3707
3712
3709
3722
3722
3713
3711
3716
3717
3717
3714
3716
3718
3723
3723
3716
3723
3725
3725
3747
3716
3732
3715
3715
3725
3720
3727
3733
3733
3717
3727
3726
3725
3725
3726
3733
3732
3737
3737
3738
3739
3743
3728
3728
3727
3740
3751
3735
3735
3742
3748
3740
3745
3745
3754
3749
3759
3749
3749
3759
3749
3750
3747
3747
3757
3766
3756
3756
3759
3748
3763
3764
3764
3757
3764
3759
3755
3755
3756
3750
3767
3769
3769
3763
3770
3772
3763
3763
3778
3760
3767
3767
3767
3761
3768
3770
3760
3760
3768
3755
3749
3746
3746
3736
3743
3737
3734
3734
3730
3730
3707
3706
3706
3696
3677
3683
3683
3685
3686
3666
3674
3674
3652
3630
3641
3641
3641
3629
3630
3629
3616
3616
3610
3607
3602
3598
3598
3584
3578
3582
3580
3580
3588
3579
3579
3570
3570
3567
3586
3564
3558
3558
3567
3563
3558
3568
3568
3563
3556
3564
3554
3554
3565
3567
3564
3564
3568
3566
3562
3566
3566
3561
3567
3572
3574
3574
3571
3583
3569
3569
3569
3575
3569
3574
3566
3566
3566
3573
3574
3597
3597
3573
3575
3581
3583
3583
3581
3587
3578
3584
3584
3582
3570
3579
3586
3586
3587
3585
3581
3597
3597
3585
3593
3598
3598
3601
3593
3604
3607
3607
3590
3593
3602
3604
3604
3601
3600
3609
3600
3600
3612
3609
3595
3604
3604
3603
3613
3605
3606
3606
3606
3605
3607
3613
3613
3609
3608
3608
3609
3609
3613
3610
3610
3612
3612
3604
3617
3609
3609
3609
3601
3615
3607
3607
3606
3612
3601
3613
3613
3621
3605
3612
3607
3607
3604
3613
3614
3617
3617
3616
3611
3611
3613
3613
3610
3623
3613
3614
3614
3611
3620
3616
3621
3621
3617
3626
3629
3614
3614
3622
3623
3627
3626
3626
3623
3625
3634
3634
3631
3639
3638
3633
3633
3643
3636
3639
3640
3640
3648
3636
3637
3637
3637
3641
3641
3639
3644
3644
3651
3652
3649
3644
3644
3651
3658
3653
3658
3658
3662
3670
3659
3665
3665
3656
3654
3657
3677
3677
3678
3666
3669
3675
3675
3670
3662
3669
3669
3670
3679
3681
3667
3667
3681
3666
3681
3689
3689
3688
3685
3695
3685
3685
3689
3687
3700
3686
3686
3690
3695
3699
3702
3702
3690
3704
3695
3702
3702
3694
3713
3704
3711
3711
3703
3700
3704
3711
3711
3709
3697
3708
3707
3707
3719
3710
3710
3710
3711
3717
3721
3721
3721
3723
3715
3718
3730
3730
3717
3720
3737
3723
3723
3727
3724
3726
3734
3734
3725
3733
3731
3733
3733
3736
3735
3736
3730
3730
3740
3742
3744
3730
3730
3741
3745
3743
3741
3741
3745
3750
3740
3734
3734
3752
3742
3749
3749
3753
3745
3743
3746
3746
3746
3748
3743
3749
3749
3748
3742
3748
3747
3747
3732
3721
3736
3722
3722
3710
3712
3698
3700
3700
3703
3692
3682
3672
3672
3675
3664
3656
3658
3658
3640
3639
3629
3635
3635
3623
3629
3611
3611
3605
3602
3599
3600
3600
3598
3583
3615
3587
3587
3587
3577
3577
3576
3576
3574
3571
3576
3567
3567
3565
3570
3578
3578
3578
3561
3574
3572
3566
3566
3556
3573
3564
3571
3571
3576
3570
3570
3560
3560
3576
3573
3572
3582
3582
3582
3584
3582
3582
3580
3579
3583
3580
3580
3583
3581
3584
3593
3593
3589
3590
3587
3601
3601
3593
3600
3597
3597
3597
3595
3602
3600
3602
3602
3606
3609
3607
3608
3608
3618
3612
3609
3610
3610
3614
3619
3622
3620
3620
3615
3622
3622
3619
3619
3619
3630
3623
3623
3627
3613
3624
3626
3626
3628
3612
3618
3623
3623
3635
3627
3624
3631
3631
3626
3620
3628
3629
3629
3630
3632
3629
3631
3631
3628
3629
3625
3622
3622
3625
3623
3627
3624
3624
3629
3630
3610
3616
3616
3633
3633
3625
3625
3629
3628
3634
3628
3628
3629
3633
3624
3634
3634
3635
3621
3630
3630
3630
3633
3633
3623
3623
3623
3642
3638
3632
3648
3648
3639
3642
3652
3643
3643
3647
3650
3642
3643
3643
3646
3639
3643
3649
3649
3649
3659
3658
3650
3650
3660
3660
3649
3649
3646
3657
3659
3652
3652
3654
3661
3668
3665
3665
3665
3669
3671
3661
3661
3665
3683
3681
3678
3678
3680
3682
3670
3682
3682
3682
3687
3685
3681
3681
3694
3699
3694
3690
3690
3693
3696
3688
3688
3688
3692
3702
3697
3698
3698
3689
3714
3694
3694
3704
3704
3714
3709
3709
3724
3713
3718
3722
3722
3710
3710
3727
3724
3724
3720
3722
3717
3721
3721
3724
3725
3724
3729
3729
3741
3735
3723
3728
3728
3716
3741
3732
3733
3733
3728
3745
3732
3740
3740
3735
3745
3753
3739
3739
3744
3751
3748
3748
3750
3749
3768
3756
3756
3755
3749
3754
3756
3756
3763
3759
3758
3765
3765
3754
3755
3767
3767
3767
3774
3762
3772
3771
3771
3768
3774
3779
3772
3772
3774
3782
3772
3779
3779
3803
3770
3762
3776
3776
3765
3776
3769
3770
3770
3772
3768
3761
3761
3768
3752
3770
3749
3749
3756
3742
3742
3725
3725
3721
3705
3717
3709
3709
3692
3696
3685
3690
3690
3674
3671
3660
3659
3659
3657
3650
3637
3643
3643
3635
3641
3617
3614
3614
3621
3617
3610
3605
3605
3603
3606
3594
3594
3598
3591
3593
3588
3588
3589
3588
3594
3592
3592
3589
3598
3584
3587
3587
3593
3593
3590
3596
3596
3594
3605
3595
3591
3591
3585
3589
3597
3593
3593
3596
3600
3603
3598
3598
3607
3617
3614
3605
3605
3603
3621
3606
3612
3612
3610
3616
3618
3618
3618
3622
3623
3609
3609
3636
3619
3621
3625
3625
3631
3623
3636
3620
3620
3629
3632
3645
3633
3633
3645
3638
3636
3640
3640
3643
3645
3640
3646
3646
3652
3645
3640
3646
3646
3647
3655
3644
3650
3650
3662
3655
3652
3652
3632
3651
3655
3650
3650
3656
3649
3669
3646
3646
3652
3654
3660
3649
3649
3644
3654
3654
3650
3650
3641
3653
3648
3638
3638
3641
3657
3651
3654
3654
3651
3651
3648
3652
3652
3647
3653
3650
3651
3651
3650
3649
3654
3656
3656
3665
3656
3658
3658
3674
3653
3659
3647
3647
3662
3665
3661
3646
3646
3666
3655
3664
3659
3659
3656
3660
3659
3666
3666
3666
3670
3669
3673
3673
3680
3678
3674
3677
3677
3682
3676
3677
3687
3687
3700
3683
3696
3691
3691
3689
3691
3687
3687
3689
3684
3697
3702
3702
3696
3689
3694
3697
3697
3711
3701
3699
3706
3706
3699
3705
3713
3705
3705
3719
3720
3699
3712
3712
3719
3719
3720
3716
3716
3720
3725
3719
3714
3714
3720
3722
3729
3730
3730
3732
3719
3731
3722
3722
3743
3731
3737
3737
3729
3734
3742
3738
3738
3738
3736
3744
3730
3730
3741
3748
3747
3748
3748
3751
3755
3752
3756
3756
3755
3752
3754
3752
3752
3751
3752
3750
3750
3750
3771
3752
3758
3753
3753
3766
3757
3761
3748
3748
3764
3763
3778
3778
3764
3765
3762
3772
3772
3765
3767
3779
3780
3780
3770
3771
3777
3772
3772
3776
3772
3776
3778
3778
3783
3781
3777
3781
3781
3783
3792
3790
3779
3779
3784
3792
3791
3790
3790
3793
3789
3798
3790
3790
3787
3791
3798
3794
3794
3793
3805
3803
3803
3809
3795
3808
3795
3795
3797
3805
3804
3798
3798
3805
3786
3799
3777
3777
3780
3777
3774
3781
3781
3745
3755
3740
3742
3742
3741
3737
3727
3709
3709
3719
3714
3705
3699
3699
3685
3684
3679
3674
3674
3670
3663
3661
3656
3656
3635
3647
3650
3650
3649
3643
3634
3622
3622
3623
3612
3623
3620
3620
3606
3610
3616
3616
3616
3607
3614
3616
3604
3604
3612
3606
3611
3622
3622
3614
3608
3615
3609
3609
3610
3609
3608
3613
3613
3611
3617
3619
3620
3620
3619
3633
3620
3620
3620
3616
3634
3629
3629
3625
3624
3636
3611
3611
3626
3639
3629
3637
3637
3640
3637
3645
3638
3638
3640
3636
3648
3636
3636
3646
3645
3647
3654
3654
3649
3657
3647
3653
3653
3658
3655
3650
3668
3668
3662
3660
3662
3660
3660
3663
3664
3665
3665
3661
3669
3669
3664
3664
3662
3661
3651
3665
3665
3662
3668
3663
3670
3670
3666
3665
3668
3665
3665
3663
3668
3668
3658
3658
3667
3673
3660
3663
3663
3660
3658
3656
3656
3656
3660
3659
3656
3649
3649
3661
3661
3665
3661
3661
3662
3666
3661
3661
3663
3668
3659
3662
3662
3652
3663
3665
3655
3655
3670
3654
3674
3664
3664
3676
3661
3674
3663
3663
3669
3667
3688
3666
3666
3679
3677
3676
3675
3675
3677
3681
3680
3678
3678
3683
3683
3678
3690
3690
3684
3688
3691
3691
3691
3687
3698
3698
3698
3693
3702
3703
3699
3699
3701
3696
3715
3704
3704
3702
3702
3704
3712
3712
3712
3720
3708
3702
3702
3710
3708
3721
3718
3718
3717
3712
3723
3717
3717
3710
3716
3711
3722
3722
3729
3725
3723
3725
3725
3725
3731
3725
3733
3733
3739
3734
3732
3732
3726
3735
3736
3733
3733
3729
3732
3737
3741
3741
3739
3740
3745
3736
3736
3743
3756
3746
3741
3741
3744
3744
3747
3749
3749
3758
3752
3752
3750
3750
3753
3763
3755
3760
3760
3761
3755
3776
3755
3755
3759
3754
3762
3762
3763
3766
3769
3762
3762
3762
3755
3770
3770
3770
3771
3770
3769
3773
3773
3760
3774
3781
3779
3779
3774
3780
3785
3779
3779
3768
3775
3775
3784
3784
3782
3789
3772
3789
3789
3788
3785
3793
3790
3790
3782
3797
3789
3798
3798
3793
3801
3798
3798
3810
3790
3801
3809
3809
3797
3796
3796
3795
3795
3797
3807
3801
3788
3788
3792
3788
3785
3779
3779
3784
3769
3769
3765
3765
3747
3752
3748
3743
3743
3739
3731
3722
3732
3732
3714
3696
3696
3693
3693
3689
3685
3667
3667
3664
3663
3667
3653
3653
3648
3642
3644
3636
3636
3636
3625
3626
3621
3621
3613
3620
3627
3622
3622
3615
3615
3615
3610
3610
3604
3616
3600
3609
3609
3596
3609
3605
3601
3601
3612
3604
3615
3607
3607
3612
3610
3612
3612
3619
3624
3623
3613
3613
3611
3610
3620
3619
3619
3615
3624
3628
3626
3626
3630
3636
3637
3626
3626
3633
3635
3635
3638
3638
3630
3647
3625
3637
3637
3642
3644
3642
3647
3647
3644
3641
3648
3652
3652
3659
3660
3657
3658
3658
3657
3660
3667
3667
3660
3660
3667
3679
3679
3661
3658
3664
3669
3669
3664
3656
3666
3670
3670
3667
3659
3665
3660
3660
3661
3660
3665
3672
3672
3670
3670
3653
3664
3664
3659
3653
3665
3665
3665
3672
3659
3654
3659
3659
3666
3662
3666
3666
3657
3664
3663
3662
3662
3667
3650
3664
3663
3663
3675
3657
3656
3645
3645
3655
3648
3668
3670
3670
3667
3662
3650
3672
3672
3666
3668
3661
3671
3671
3664
3673
3671
3670
3670
3676
3685
3680
3678
3678
3671
3671
3676
3676
3672
3669
3681
3678
3678
3681
3684
3675
3680
3680
3685
3681
3696
3689
3689
3680
3688
3702
3691
3691
3700
3696
3700
3718
3718
3702
3704
3700
3693
3693
3704
3710
3702
3713
3713
3712
3702
3709
3715
3715
3705
3717
3717
3717
3716
3711
3733
3720
3720
3725
3720
3724
3727
3727
3732
3719
3725
3733
3733
3731
3727
3729
3733
3733
3737
3746
3739
3739
3739
3744
3737
3747
3744
3744
3737
3747
3743
3749
3749
3746
3742
3746
3735
3735
3746
3751
3745
3752
3752
3763
3767
3757
3757
3758
3758
3759
3746
3746
3762
3755
3767
3766
3766
3773
3767
3766
3769
3769
3762
3778
3774
3767
3767
3771
3775
3764
3773
3773
3776
3774
3772
3769
3769
3773
3783
3770
3780
3780
3780
3777
3778
3783
3783
3780
3783
3787
3787
3788
3778
3782
3782
3782
3789
3784
3790
3789
3789
3791
3789
3803
3793
3793
3796
3787
3797
3798
3798
3804
3800
3808
3804
3804
3805
3800
3810
3808
3808
3807
3813
3818
3810
3810
3809
3805
3811
3805
3805
3806
3805
3805
3805
3810
3810
3802
3791
3791
3808
3793
3793
3791
3791
3781
3759
3772
3747
3747
3754
3758
3751
3733
3733
3730
3729
3730
3705
3705
3699
3702
3691
3692
3692
3680
3667
3667
3660
3660
3651
3654
3644
3643
3643
3639
3638
3624
3625
3625
3618
3620
3608
3608
3612
3613
3607
3608
3608
3604
3607
3603
3600
3600
3596
3594
3597
3596
3596
3598
3606
3594
3605
3605
3595
3598
3610
3595
3595
3599
3602
3594
3600
3600
3598
3607
3603
3608
3608
3600
3607
3600
3616
3616
3599
3607
3610
3594
3594
3610
3616
3614
3614
3612
3608
3622
3608
3608
3608
3609
3611
3618
3618
3621
3614
3623
3630
3630
3624
3628
3627
3624
3624
3623
3627
3625
3638
3638
3636
3635
3636
3632
3632
3630
3629
3626
3640
3640
3629
3638
3646
3635
3635
3639
3649
3634
3634
3636
3645
3648
3640
3640
3652
3643
3640
3637
3637
3644
3645
3642
3643
3643
3637
3642
3650
3647
3647
3645
3647
3645
3646
3646
3641
3633
3646
3636
3636
3624
3646
3639
3643
3643
3643
3646
3639
3645
3645
3657
3636
3646
3643
3643
3646
3645
3635
3635
3655
3651
3648
3650
3650
3650
3650
3659
3650
3650
3639
3648
3663
3663
3663
3653
3665
3652
3650
3650
3667
3652
3660
3660
3660
3659
3674
3665
3671
3671
3666
3669
3666
3670
3670
3682
3677
3672
3676
3676
3664
3677
3673
3669
3669
3662
3681
3684
3684
3679
3681
3688
3680
3680
3686
3678
3682
3693
3693
3690
3664
3693
3694
3694
3696
3695
3700
3689
3689
3700
3705
3703
3706
3706
3708
3704
3707
3722
3722
3711
3719
3703
3719
3719
3717
3723
3719
3719
3719
3717
3724
3721
3725
3725
3724
3725
3725
3725
3720
3724
3733
3740
3740
3742
3721
3735
3732
3732
3736
3730
3730
3733
3733
3736
3747
3744
3735
3735
3742
3743
3750
3742
3742
3744
3750
3744
3755
3755
3748
3753
3751
3741
3741
3751
3767
3754
3753
3753
3752
3742
3757
3756
3756
3755
3765
3752
3752
3761
3761
3754
3766
3766
3763
3767
3767
3763
3763
3773
3763
3779
3773
3773
3772
3767
3764
3778
3778
3781
3774
3779
3778
3778
3774
3777
3768
3777
3777
3767
3772
3781
3780
3780
3786
3788
3785
3785
3785
3784
3790
3786
3788
3788
3791
3795
3794
3794
3793
3798
3795
3810
3810
3805
3792
3803
3802
3802
3805
3803
3803
3805
3805
3814
3805
3810
3804
3804
3790
3799
3791
3802
3802
3816
3798
3802
3780
3780
3790
3783
3773
3775
3775
3762
3767
3757
3753
3753
3742
3742
3737
3729
3729
3720
3712
3702
3702
3694
3689
3694
3674
3674
3670
3659
3663
3656
3656
3645
3644
3637
3629
3629
3632
3612
3626
3612
3612
3612
3615
3605
3594
3594
3607
3601
3600
3591
3591
3593
3601
3596
3595
3595
3592
3598
3598
3590
3590
3615
3608
3591
3591
3599
3590
3597
3593
3593
3598
3598
3600
3588
3588
3599
3596
3601
3589
3589
3601
3603
3605
3589
3589
3599
3608
3599
3607
3607
3603
3611
3603
3608
3608
3609
3609
3604
3608
3608
3606
3598
3606
3614
3614
3610
3617
3620
3622
3622
3613
3621
3615
3615
3620
3621
3624
3631
3631
3624
3614
3624
3629
3629
3623
3619
3631
3639
3639
3625
3631
3625
3632
3632
3629
3628
3621
3634
3634
3632
3645
3637
3636
3636
3637
3639
3641
3631
3631
3635
3638
3635
3628
3628
3637
3640
3634
3640
3640
3633
3632
3635
3635
3634
3643
3641
3636
3636
3641
3643
3641
3644
3644
3645
3644
3642
3636
3636
3647
3638
3636
3641
3641
3642
3645
3646
3645
3645
3644
3647
3648
3639
3639
3644
3648
3654
3654
3654
3647
3648
3643
3656
3656
3647
3652
3658
3652
3652
3649
3660
3659
3659
3656
3649
3660
3668
3668
3664
3665
3682
3665
3665
3671
3666
3669
3668
3668
3662
3681
3672
3683
3683
3678
3685
3674
3680
3680
3665
3691
3677
3690
3690
3677
3688
3673
3688
3688
3697
3699
3699
3697
3697
3699
3693
3704
3701
3701
3712
3704
3704
3704
3697
3707
3714
3713
3713
3708
3710
3717
3717
3717
3719
3715
3710
3719
3719
3712
3720
3717
3729
3729
3726
3728
3727
3733
3733
3731
3737
3727
3738
3738
3731
3735
3730
3748
3748
3725
3743
3745
3741
3741
3742
3744
3741
3739
3739
3743
3736
3748
3748
3745
3750
3750
3752
3752
3745
3745
3748
3757
3757
3757
3756
3763
3740
3740
3755
3759
3762
3757
3757
3763
3766
3772
3758
3758
3770
3771
3766
3771
3771
3770
3777
3777
3773
3773
3778
3769
3766
3774
3774
3770
3784
3768
3777
3777
3782
3789
3778
3778
3790
3784
3776
3785
3785
3790
3792
3795
3787
3787
3797
3794
3788
3785
3785
3795
3793
3802
3814
3814
3800
3807
3796
3802
3802
3804
3807
3808
3814
3814
3799
3822
3810
3817
3817
3815
3807
3813
3817
3817
3817
3818
3819
3802
3802
3817
3821
3818
3818
3811
3823
3825
3814
3814
3824
3809
3819
3823
3823
3814
3800
3813
3806
3806
3803
3787
3795
3793
3793
3780
3776
3771
3763
3763
3761
3755
3746
3729
3729
3723
3731
3694
3714
3714
3692
3684
3690
3696
3696
3670
3684
3670
3660
3660
3656
3655
3652
3652
3650
3639
3629
3631
3631
3627
3619
3619
3621
3621
3622
3611
3620
3603
3603
3611
3609
3598
3610
3610
3609
3606
3606
3600
3600
3592
3607
3592
3607
3607
3608
3605
3608
3617
3617
3609
3607
3605
3598
3598
3607
3607
3607
3606
3606
3602
3614
3614
3614
3617
3617
3621
3620
3620
3629
3618
3622
3624
3624
3616
3627
3626
3620
3620
3625
3612
3627
3622
3622
3625
3632
3636
3619
3619
3625
3633
3635
3638
3638
3645
3645
3637
3624
3624
3645
3635
3634
3644
3644
3637
3644
3650
3649
3649
3645
3648
3650
3650
3659
3649
3651
3656
3656
3648
3639
3650
3650
3650
3637
3648
3650
3649
3649
3651
3645
3658
3645
3645
3652
3652
3652
3660
3660
3656
3657
3656
3648
3648
3653
3658
3648
3656
3656
3656
3660
3655
3654
3654
3663
3652
3655
3661
3661
3668
3658
3653
3653
3662
3657
3655
3656
3656
3651
3655
3653
3661
3661
3657
3664
3660
3669
3669
3658
3662
3660
3664
3664
3664
3675
3671
3695
3695
3669
3686
3675
3671
3671
3677
3674
3676
3680
3680
3683
3674
3682
3686
3686
3683
3689
3682
3680
3680
3695
3668
3678
3678
3684
3687
3689
3708
3708
3695
3704
3697
3695
3695
3690
3702
3711
3701
3701
3703
3706
3711
3713
3713
3714
3712
3716
3708
3708
3713
3724
3714
3718
3718
3714
3721
3729
3727
3727
3723
3724
3725
3728
3728
3726
3720
3730
3730
3732
3731
3736
3738
3738
3739
3733
3742
3735
3735
3760
3739
3745
3743
3743
3749
3738
3750
3745
3745
3753
3750
3738
3748
3748
3760
3760
3759
3754
3754
3754
3756
3759
3762
3762
3768
3762
3760
3762
3762
3765
3768
3765
3770
3770
3765
3775
3771
3771
3773
3771
3770
3769
3769
3774
3775
3780
3777
3777
3776
3775
3783
3787
3787
3776
3781
3773
3787
3787
3785
3787
3794
3782
3782
3787
3791
3797
3791
3791
3794
3797
3799
3783
3783
3796
3799
3797
3801
3801
3826
3800
3799
3804
3804
3807
3809
3806
3806
3811
3810
3810
3810
3810
3810
3816
3819
3820
3820
3815
3825
3820
3811
3811
3811
3806
3811
3822
3822
3824
3819
3826
3827
3827
3835
3840
3829
3835
3835
3832
3829
3838
3830
3830
3825
3828
3834
3826
3826
3823
3820
3815
3810
3810
3811
3802
3800
3800
3795
3787
3782
3771
3771
3767
3765
3761
3755
3755
3747
3737
3744
3727
3727
3721
3721
3711
3706
3706
3694
3695
3686
3681
3681
3683
3675
3673
3663
3663
3671
3666
3659
3659
3659
3658
3656
3644
3645
3645
3645
3648
3640
3644
3644
3638
3624
3642
3642
3640
3640
3640
3636
3636
3633
3643
3641
3643
3643
3644
3640
3648
3638
3638
3644
3643
3649
3651
3651
3638
3650
3650
3650
3650
3659
3654
3651
3665
3665
3661
3663
3662
3669
3669
3654
3654
3658
3669
3669
3654
3668
3668
3670
3670
3680
3678
3673
3673
3682
3669
3691
3685
3685
3684
3676
3689
3686
3686
3697
3683
3694
3691
3691
3697
3687
3685
3688
3688
3691
3690
3695
3691
3691
3694
3706
3693
3696
3696
3690
3703
3703
3696
3696
3706
3699
3704
3692
3692
3694
3702
3696
3696
3694
3689
3696
3693
3693
3693
3697
3699
3690
3690
3690
3696
3692
3693
3693
3694
3693
3692
3693
3693
3700
3693
3692
3698
3698
3678
3689
3695
3698
3698
3687
3697
3697
3694
3694
3697
3693
3708
3688
3688
3695
3699
3694
3694
3694
3703
3704
3705
3705
3704
3700
3708
3705
3705
3708
3707
3722
3705
3705
3725
3709
3708
3711
3711
3713
3715
3711
3712
3712
3730
3722
3716
3722
3722
3721
3729
3724
3725
3725
3727
3728
3729
3733
3733
3729
3744
3742
3734
3734
3734
3741
3745
3745
3742
3751
3748
3745
3745
3755
3745
3744
3744
3744
3747
3754
3755
3757
3757
3765
3752
3760
3768
3768
3758
3765
3764
3775
3775
3764
3768
3768
3762
3762
3769
3782
3768
3773
3773
3771
3764
3765
3778
3778
3785
3776
3771
3784
3784
3789
3770
3779
3779
3760
3774
3789
3785
3785
3786
3788
3785
3787
3787
3793
3793
3802
3791
3791
3799
3798
3796
3800
3800
3802
3798
3796
3801
3801
3801
3803
3795
3796
3796
3798
3807
3808
3812
3812
3805
3807
3809
3819
3819
3810
3821
3806
3806
3816
3819
3817
3817
3817
3815
3814
3813
3816
3816
3834
3819
3818
3821
3821
3825
3826
3830
3823
3823
3827
3829
3830
3823
3823
3839
3831
3838
3836
3836
3833
3839
3835
3839
3839
3827
3830
3835
3845
3845
3841
3848
3840
3837
3837
3840
3843
3835
3835
3836
3822
3830
3823
3823
3820
3810
3810
3802
3802
3789
3786
3791
3779
3779
3770
3764
3762
3755
3755
3741
3748
3738
3719
3719
3723
3722
3707
3703
3703
3698
3688
3686
3685
3685
3676
3666
3662
3661
3661
3667
3646
3650
3650
3643
3637
3643
3639
3639
3638
3627
3631
3623
3623
3629
3622
3620
3630
3630
3606
3618
3615
3615
3615
3619
3611
3623
3604
3604
3622
3621
3617
3618
3618
3613
3630
3614
3623
3623
3617
3622
3611
3626
3626
3615
3621
3625
3632
3632
3608
3627
3629
3629
3628
3625
3629
3638
3638
3633
3622
3634
3626
3626
3625
3639
3637
3641
3641
3632
3619
3639
3639
3639
3638
3641
3637
3638
3638
3638
3667
3654
3640
3640
3649
3653
3640
3632
3632
3647
3649
3649
3641
3641
3647
3659
3646
3646
3639
3647
3649
3648
3648
3647
3650
3652
3656
3656
3649
3648
3652
3660
3660
3644
3648
3657
3658
3658
3657
3650
3640
3648
3648
3638
3649
3658
3650
3650
3642
3650
3637
3657
3657
3654
3644
3643
3653
3653
3647
3653
3648
3651
3651
3639
3638
3654
3654
3656
3649
3654
3645
3645
3656
3649
3647
3653
3653
3658
3666
3657
3655
3655
3654
3668
3659
3662
3662
3657
3656
3659
3661
3661
3656
3661
3662
3664
3664
3655
3665
3667
3672
3672
3668
3672
3665
3665
3665
3672
3677
3680
3674
3674
3680
3680
3688
3688
3687
3688
3691
3683
3683
3692
3673
3702
3689
3689
3692
3692
3691
3696
3696
3688
3697
3698
3692
3692
3704
3700
3695
3702
3702
3715
3705
3711
3706
3706
3728
3716
3711
3721
3721
3718
3719
3714
3715
3715
3724
3718
3718
3722
3722
3724
3727
3725
3725
3715
3724
3727
3729
3729
3730
3715
3721
3736
3736
3735
3735
3742
3737
3737
3736
3736
3732
3733
3733
3735
3738
3745
3747
3747
3745
3753
3746
3742
3742
3743
3759
3756
3757
3757
3755
3751
3751
3757
3757
3761
3754
3753
3753
3750
3762
3763
3761
3761
3766
3757
3764
3761
3761
3759
3762
3764
3760
3760
3761
3771
3775
3765
3765
3774
3775
3775
3776
3776
3765
3780
3779
3795
3795
3774
3774
3784
3784
3784
3767
3786
3788
3785
3785
3775
3780
3782
3788
3788
3787
3784
3787
3787
3792
3788
3799
3800
3800
3794
3780
3794
3802
3802
3793
3793
3799
3797
3797
3799
3807
3810
3806
3806
3798
3803
3809
3796
3796
3805
3807
3802
3793
3793
3807
3802
3798
3797
3797
3799
3798
3786
3786
3786
3766
3778
3771
3756
3756
3764
3752
3736
3736
3735
3718
3722
3706
3706
3698
3697
3691
3685
3685
3690
3659
3663
3646
3646
3644
3628
3632
3623
3623
3629
3630
3602
3596
3596
3604
3602
3599
3588
3588
3586
3584
3581
3589
3589
3574
3576
3571
3573
3573
3568
3571
3565
3565
3560
3564
3570
3562
3562
3559
3557
3572
3564
3564
3551
3565
3567
3565
3565
3558
3553
3561
3559
3559
3567
3563
3568
3564
3564
3567
3566
3565
3564
3564
3561
3559
3574
3558
3558
3565
3571
3566
3574
3574
3569
3576
3580
3566
3566
3581
3575
3574
3574
3577
3557
3577
3578
3578
3575
3573
3569
3572
3572
3581
3567
3580
3576
3576
3594
3579
3583
3575
3575
3579
3582
3588
3587
3587
3581
3583
3587
3587
3587
3594
3591
3587
3596
3596
3588
3586
3592
3584
3584
3603
3594
3589
3593
3593
3586
3592
3592
3592
3590
3597
3590
3596
3596
3593
3581
3594
3585
3585
3587
3576
3592
3590
3590
3592
3589
3591
3592
3592
3595
3593
3586
3589
3589
3592
3607
3593
3592
3592
3594
3596
3579
3591
3591
3594
3591
3595
3583
3583
3601
3598
3598
3598
3598
3597
3589
3591
3591
3600
3585
3584
3594
3594
3590
3600
3598
3601
3601
3610
3605
3605
3611
3611
3609
3612
3615
3609
3609
3608
3614
3613
3619
3619
3620
3628
3611
3624
3624
3622
3617
3626
3627
3627
3618
3614
3624
3625
3625
3620
3634
3632
3632
3633
3621
3628
3634
3634
3633
3639
3627
3633
3633
3636
3636
3662
3643
3643
3644
3643
3646
3646
3646
3645
3641
3648
3652
3652
3637
3659
3652
3654
3654
3657
3656
3659
3648
3648
3663
3657
3651
3667
3667
3670
3665
3677
3669
3669
3674
3677
3669
3669
3679
3673
3674
3679
3679
3672
3668
3673
3680
3680
3672
3690
3684
3678
3678
3678
3687
3674
3672
3672
3682
3686
3682
3689
3689
3694
3679
3696
3693
3693
3697
3697
3699
3686
3686
3695
3686
3703
3702
3702
3697
3701
3706
3706
3702
3710
3710
3708
3708
3705
3701
3698
3707
3707
3711
3705
3720
3713
3713
3708
3714
3715
3717
3717
3715
3721
3716
3714
3714
3721
3729
3711
3716
3716
3720
3732
3718
3722
3722
3728
3727
3717
3743
3743
3728
3727
3732
3738
3738
3730
3734
3733
3733
3733
3735
3739
3744
3744
3750
3743
3737
3752
3752
3735
3742
3752
3748
3748
3755
3753
3749
3753
3753
3750
3755
3757
3753
3753
3757
3761
3753
3754
3754
3756
3756
3751
3749
3749
3753
3747
3753
3737
3737
3735
3729
3725
3723
3723
3723
3716
3707
3707
3702
3698
3692
3688
3688
3665
3665
3661
3652
3652
3644
3649
3628
3625
3625
3613
3610
3611
3603
3603
3586
3589
3566
3578
3578
3569
3570
3558
3557
3557
3550
3543
3542
3542
3542
3546
3539
3531
3533
3533
3531
3530
3528
3528
3538
3526
3523
3522
3522
3519
3523
3520
3508
3508
3525
3508
3526
3524
3524
3525
3515
3533
3520
3520
3522
3529
3527
3523
3523
3518
3519
3515
3529
3529
3527
3529
3522
3532
3532
3527
3516
3528
3533
3533
3528
3540
3534
3535
3535
3531
3532
3532
3532
3527
3529
3534
3531
3531
3545
3533
3539
3530
3530
3543
3548
3531
3543
3543
3539
3543
3546
3545
3545
3547
3545
3552
3549
3549
3543
3553
3548
3544
3544
3557
3561
3556
3552
3552
3552
3557
3554
3551
3551
3558
3556
3546
3546
3556
3576
3560
3557
3557
3555
3551
3556
3566
3566
3547
3547
3565
3545
3545
3550
3553
3551
3551
3551
3552
3556
3556
3554
3554
3554
3552
3561
3558
3558
3555
3571
3551
3560
3560
3552
3561
3556
3560
3560
3564
3565
3557
3556
3556
3556
3554
3566
3566
3570
3558
3567
3562
3562
3549
3561
3560
3567
3567
3567
3568
3558
3566
3566
3572
3577
3569
3584
3584
3579
3584
3584
3580
3580
3581
3578
3580
3581
3581
3586
3587
3585
3591
3591
3596
3595
3592
3596
3596
3590
3597
3603
3603
3594
3591
3605
3604
3604
3601
3601
3605
3605
3605
3610
3621
3601
3615
3615
3617
3613
3614
3613
3613
3617
3616
3615
3625
3625
3619
3618
3626
3626
3626
3617
3643
3617
3626
3626
3629
3638
3639
3637
3637
3625
3636
3637
3634
3634
3638
3646
3641
3641
3641
3646
3640
3642
3642
3656
3642
3649
3649
3649
3646
3642
3650
3646
3646
3657
3655
3658
3665
3665
3664
3654
3664
3661
3661
3662
3664
3654
3664
3664
3645
3667
3665
3666
3666
3666
3675
3668
3668
3668
3668
3680
3675
3675
3670
3677
3684
3678
3678
3675
3676
3673
3677
3677
3677
3672
3683
3668
3668
3678
3687
3692
3694
3694
3679
3690
3685
3681
3681
3690
3695
3696
3687
3687
3691
3699
3695
3703
3703
3694
3694
3699
3696
3696
3714
3705
3711
3709
3709
3705
3715
3713
3713
3701
3712
3710
3705
3705
3712
3708
3725
3712
3712
3724
3711
3726
3720
3720
3723
3694
3718
3734
3734
3727
3716
3734
3725
3725
3738
3734
3726
3736
3736
3727
3724
3727
3731
3731
3733
3715
3719
3716
3716
3716
3711
3700
3700
3696
3691
3693
3686
3686
3679
3672
3661
3657
3657
3645
3632
3640
3637
3637
3633
3625
3616
3606
3606
3597
3601
3592
3582
3582
3590
3590
3570
3565
3565
3568
3556
3558
3550
3550
3544
3545
3555
3541
3541
3532
3526
3523
3538
3538
3521
3537
3524
3524
3533
3526
3514
3528
3528
3531
3526
3533
3523
3523
3528
3523
3540
3539
3539
3535
3535
3543
3532
3532
3549
3534
3539
3534
3534
3538
3542
3545
3541
3541
3548
3546
3552
3556
3556
3550
3547
3553
3555
3555
3551
3553
3555
3555
3565
3560
3565
3567
3567
3564
3553
3565
3571
3571
3579
3575
3589
3568
3568
3567
3568
3589
3569
3569
3581
3580
3580
3584
3584
3577
3580
3581
3588
3588
3580
3589
3576
3584
3584
3587
3592
3578
3588
3588
3577
3578
3576
3593
3593
3584
3588
3585
3585
3595
3576
3583
3583
3583
3586
3589
3591
3581
3581
3584
3575
3585
3584
3584
3576
3586
3582
3576
3576
3573
3579
3574
3576
3576
3580
3583
3592
3583
3583
3597
3591
3580
3593
3593
3587
3585
3582
3583
3583
3585
3576
3601
3601
3581
3587
3591
3589
3589
3597
3597
3597
3600
3600
3600
3584
3589
3603
3603
3603
3594
3601
3601
3601
3606
3606
3614
3608
3608
3606
3608
3605
3614
3614
3617
3615
3612
3620
3620
3617
3625
3617
3621
3621
3617
3625
3633
3633
3633
3628
3635
3628
3628
3640
3632
3635
3645
3645
3634
3641
3640
3641
3641
3641
3638
3630
3631
3631
3647
3656
3644
3641
3641
3645
3652
3649
3649
3649
3659
3662
3650
3655
3655
3656
3656
3657
3659
3659
3663
3663
3658
3666
3666
3660
3664
3671
3671
3667
3663
3672
3662
3662
3658
3661
3672
3674
3674
3679
3672
3675
3672
3672
3684
3675
3684
3677
3677
3680
3686
3681
3687
3687
3690
3693
3690
3683
3683
3689
3701
3696
3690
3690
3695
3692
3696
3691
3691
3695
3701
3691
3699
3699
3699
3690
3704
3704
3705
3694
3725
3706
3706
3709
3703
3711
3710
3710
3709
3709
3709
3714
3714
3706
3714
3717
3716
3716
3721
3721
3716
3714
3714
3722
3726
3705
3717
3717
3722
3711
3720
3727
3727
3728
3727
3719
3724
3724
3735
3731
3740
3740
3739
3733
3739
3737
3737
3744
3738
3739
3742
3742
3744
3734
3750
3731
3731
3742
3743
3744
3751
3751
3745
3738
3743
3745
3745
3742
3748
3733
3724
3724
3730
3725
3714
3703
3703
3715
3701
3708
3692
3692
3678
3675
3669
3661
3661
3663
3662
3649
3649
3634
3648
3629
3608
3608
3616
3602
3601
3600
3600
3586
3587
3578
3560
3560
3566
3554
3558
3551
3551
3551
3542
3542
3536
3536
3543
3530
3532
3533
3533
3537
3536
3525
3529
3529
3526
3524
3519
3527
3527
3529
3515
3526
3526
3524
3511
3527
3510
3510
3515
3521
3516
3517
3517
3532
3518
3532
3525
3525
3525
3524
3527
3527
3527
3521
3528
3536
3548
3548
3531
3525
3527
3520
3520
3529
3529
3533
3531
3531
3550
3541
3533
3551
3551
3543
3536
3542
3541
3541
3541
3546
3546
3546
3530
3542
3551
3543
3543
3545
3540
3547
3553
3553
3551
3556
3551
3551
3551
3554
3552
3558
3553
3553
3557
3556
3556
3552
3552
3562
3547
3557
3561
3561
3559
3555
3563
3558
3558
3556
3557
3553
3570
3570
3557
3557
3563
3563
3561
3562
3567
3557
3557
3571
3562
3560
3562
3562
3579
3556
3556
3569
3569
3569
3557
3570
3567
3567
3554
3561
3553
3549
3549
3566
3565
3562
3564
3564
3565
3557
3563
3570
3570
3555
3570
3566
3579
3579
3567
3575
3579
3567
3567
3574
3579
3580
3580
3570
3578
3585
3578
3578
3582
3579
3582
3575
3575
3589
3579
3585
3589
3589
3585
3593
3595
3606
3606
3580
3597
3596
3581
3581
3606
3595
3596
3597
3597
3605
3605
3603
3615
3615
3611
3596
3608
3613
3613
3615
3613
3611
3612
3612
3616
3625
3623
3623
3612
3614
3628
3619
3619
3621
3624
3626
3623
3623
3623
3625
3633
3632
3632
3632
3607
3639
3634
3634
3643
3648
3638
3637
3637
3636
3646
3639
3638
3638
3649
3646
3645
3650
3650
3658
3643
3643
3655
3655
3654
3662
3647
3663
3663
3657
3661
3663
3663
3661
3665
3665
3658
3658
3662
3670
3670
3672
3672
3668
3672
3675
3682
3682
3659
3661
3672
3676
3676
3674
3681
3668
3679
3679
3681
3679
3681
3679
3679
3687
3683
3673
3693
3693
3692
3703
3680
3690
3690
3703
3684
3693
3693
3689
3694
3694
3688
3688
3698
3698
3701
3706
3706
3694
3687
3708
3706
3706
3707
3696
3710
3711
3711
3709
3706
3716
3708
3708
3707
3710
3722
3713
3713
3713
3719
3717
3719
3719
3730
3730
3729
3712
3712
3721
3719
3730
3722
3722
3709
3731
3726
3726
3731
3721
3741
3736
3736
3734
3731
3750
3745
3745
3730
3735
3745
3726
3726
3737
3736
3731
3729
3729
3737
3733
3733
3730
3730
3729
3724
3721
3708
3708
3709
3716
3686
3689
3689
3686
3680
3675
3665
3665
3658
3656
3648
3648
3641
3628
3634
3617
3617
3607
3605
3597
3587
3587
3578
3562
3570
3553
3553
3554
3550
3552
3555
3555
3535
3530
3526
3524
3524
3526
3528
3510
3514
3514
3512
3501
3497
3507
3507
3501
3506
3500
3496
3496
3489
3502
3517
3500
3500
3503
3508
3493
3493
3487
3501
3507
3490
3490
3497
3496
3503
3507
3507
3501
3496
3507
3506
3506
3509
3505
3516
3494
3494
3508
3522
3510
3512
3512
3508
3513
3507
3506
3506
3514
3522
3512
3512
3512
3515
3515
3513
3518
3518
3520
3520
3517
3517
3517
3522
3525
3521
3521
3519
3523
3523
3524
3524
3521
3530
3522
3538
3538
3527
3532
3533
3533
3533
3543
3536
3536
3534
3534
3543
3548
3546
3551
3551
3538
3546
3543
3544
3544
3552
3542
3541
3535
3535
3541
3527
3555
3533
3533
3538
3546
3534
3534
3537
3543
3542
3540
3540
3523
3545
3546
3538
3538
3542
3536
3554
3543
3543
3539
3547
3557
3547
3547
3554
3547
3566
3544
3544
3556
3554
3550
3554
3554
3556
3547
3552
3551
3551
3551
3552
3559
3560
3560
3565
3559
3552
3551
3551
3558
3567
3557
3557
3559
3558
3572
3564
3564
3561
3562
3564
3568
3568
3576
3566
3583
3571
3571
3575
3576
3577
3575
3575
3579
3581
3589
3588
3588
3590
3588
3584
3583
3583
3584
3584
3586
3599
3599
3573
3597
3598
3606
3606
3587
3597
3600
3599
3599
3598
3609
3606
3606
3611
3609
3616
3612
3612
3613
3614
3614
3615
3615
3605
3618
3623
3613
3613
3624
3617
3624
3621
3621
3622
3621
3631
3626
3626
3627
3628
3632
3624
3624
3635
3630
3617
3649
3649
3639
3642
3644
3641
3641
3662
3644
3643
3643
3650
3646
3655
3649
3649
3649
3652
3649
3647
3647
3652
3647
3653
3656
3656
3652
3653
3649
3658
3658
3660
3641
3665
3661
3661
3663
3669
3665
3668
3668
3671
3660
3669
3671
3671
3682
3673
3667
3673
3673
3676
3676
3679
3671
3671
3676
3679
3690
3690
3680
3680
3678
3681
3681
3678
3678
3691
3690
3690
3689
3686
3701
3691
3691
3696
3686
3693
3698
3698
3692
3701
3694
3696
3696
3696
3717
3697
3701
3701
3705
3703
3699
3703
3703
3710
3703
3722
3703
3703
3707
3721
3720
3720
3714
3711
3715
3720
3720
3724
3718
3719
3723
3723
3727
3725
3728
3736
3736
3730
3717
3738
3734
3734
3729
3739
3739
3736
3736
3734
3736
3739
3734
3734
3735
3732
3723
3733
3733
3729
3722
3715
3711
3711
3715
3705
3698
3695
3695
3683
3674
3670
3670
3669
3655
3658
3646
3646
3634
3630
3628
3622
3622
3611
3608
3610
3592
3592
3583
3589
3578
3568
3568
3565
3550
3548
3548
3548
3547
3541
3535
3531
3531
3524
3516
3527
3530
3530
3520
3531
3514
3520
3520
3521
3521
3516
3516
3521
3518
3522
3512
3512
3514
3508
3527
3519
3519
3520
3518
3521
3522
3522
3526
3529
3524
3520
3520
3531
3533
3523
3527
3527
3532
3548
3535
3543
3543
3548
3536
3537
3535
3535
3546
3545
3548
3552
3552
3546
3551
3546
3550
3550
3553
3564
3557
3557
3558
3542
3549
3559
3559
3559
3548
3555
3559
3559
3547
3561
3564
3579
3579
3573
3563
3577
3572
3572
3563
3572
3567
3572
3572
3575
3569
3571
3577
3577
3580
3589
3571
3579
3579
3576
3575
3574
3571
3571
3561
3567
3587
3587
3576
3572
3586
3568
3568
3574
3572
3577
3581
3581
3576
3570
3581
3575
3575
3570
3581
3582
3574
3574
3578
3576
3579
3580
3580
3578
3581
3577
3577
3577
3573
3576
3576
3592
3592
3580
3568
3578
3577
3577
3578
3580
3588
3566
3566
3579
3583
3580
3580
3583
3585
3596
3597
3597
3591
3574
3592
3588
3588
3580
3592
3599
3597
3597
3598
3599
3601
3593
3593
3596
3599
3614
3607
3607
3605
3606
3601
3609
3609
3616
3617
3610
3621
3621
3610
3611
3616
3618
3618
3626
3620
3623
3633
3633
3628
3631
3629
3629
3621
3635
3639
3628
3628
3637
3631
3630
3629
3629
3647
3646
3649
3647
3647
3663
3655
3652
3644
3644
3653
3656
3656
3660
3660
3654
3658
3646
3650
3650
3651
3661
3661
3658
3658
3663
3672
3675
3666
3666
3676
3675
3670
3670
3674
3658
3670
3672
3672
3677
3669
3676
3668
3668
3682
3681
3678
3694
3694
3681
3674
3698
3697
3697
3686
3687
3689
3688
3688
3685
3691
3694
3698
3698
3693
3697
3690
3692
3692
3704
3699
3699
3694
3694
3688
3684
3699
3703
3703
3708
3701
3707
3707
3697
3722
3709
3701
3701
3711
3707
3711
3711
3711
3717
3704
3706
3706
3706
3721
3707
3731
3727
3727
3736
3735
3724
3724
3724
3726
3723
3716
3727
3727
3731
3745
3735
3737
3737
3731
3731
3742
3737
3737
3740
3745
3740
3736
3736
3741
3748
3742
3742
3730
3740
3751
3748
3748
3745
3746
3747
3753
3753
3749
3746
3749
3747
3747
3750
3741
3745
3744
3744
3738
3740
3732
3728
3728
3728
3718
3714
3711
3711
3711
3706
3692
3686
3686
3672
3669
3669
3660
3660
3638
3639
3639
3620
3620
3628
3613
3607
3607
3599
3597
3587
3568
3568
3583
3574
3564
3567
3567
3559
3555
3558
3549
3549
3546
3543
3549
3536
3536
3543
3542
3529
3541
3541
3530
3543
3535
3534
3534
3532
3523
3533
3522
3522
3532
3542
3525
3530
3530
3531
3539
3532
3532
3538
3543
3541
3536
3536
3545
3547
3535
3546
3546
3545
3537
3548
3542
3542
3551
3546
3574
3547
3547
3554
3552
3544
3554
3554
3553
3558
3556
3554
3554
3555
3562
3572
3564
3564
3568
3569
3574
3573
3573
3574
3572
3569
3573
3573
3563
3582
3577
3577
3585
3582
3580
3577
3577
3578
3580
3579
3589
3589
3585
3573
3589
3577
3577
3582
3582
3586
3593
3593
3587
3595
3586
3583
3583
3590
3590
3599
3595
3595
3575
3587
3591
3592
3592
3583
3596
3587
3586
3586
3592
3598
3587
3597
3597
3590
3582
3603
3603
3596
3586
3598
3593
3593
3591
3589
3599
3593
3593
3593
3582
3594
3594
3594
3596
3593
3600
3594
3594
3599
3605
3598
3596
3596
3605
3601
3595
3600
3600
3612
3593
3608
3605
3605
3604
3605
3611
3605
3605
3604
3603
3613
3613
3614
3617
3619
3613
3613
3626
3612
3624
3614
3614
3627
3620
3621
3635
3635
3613
3617
3621
3631
3631
3628
3638
3637
3647
3647
3643
3646
3636
3632
3632
3643
3649
3648
3655
3655
3643
3663
3646
3639
3639
3655
3652
3652
3658
3658
3651
3647
3663
3663
3659
3651
3660
3667
3667
3665
3660
3675
3665
3665
3661
3670
3672
3675
3675
3676
3672
3675
3694
3694
3681
3687
3686
3685
3685
3672
3688
3686
3683
3683
3692
3694
3697
3695
3695
3691
3709
3692
3699
3699
3709
3704
3703
3703
3702
3686
3712
3703
3703
3703
3693
3715
3704
3704
3706
3706
3708
3716
3716
3716
3721
3717
3718
3718
3715
3724
3724
3725
3725
3726
3726
3721
3714
3714
3714
3733
3721
3718
3718
3727
3727
3732
3742
3742
3733
3729
3729
3734
3734
3730
3743
3741
3741
3738
3739
3742
3747
3747
3740
3751
3745
3740
3740
3744
3742
3745
3751
3751
3762
3755
3747
3753
3753
3756
3750
3749
3758
3758
3760
3756
3763
3759
3759
3765
3758
3764
3764
3764
3766
3771
3768
3776
3776
3775
3771
3773
3767
3767
3775
3781
3779
3779
3772
3787
3785
3785
3785
3782
3780
3786
3791
3791
3784
3779
3787
3782
3782
3782
3786
3781
3792
3792
3782
3775
3761
3769
3769
3753
3768
3755
3755
3755
3746
3741
3726
3728
3728
3725
3720
3705
3711
3711
3685
3681
3672
3672
3680
3654
3644
3650
3650
3635
3629
3621
3619
3619
3619
3591
3596
3586
3586
3587
3573
3569
3573
3573
3569
3563
3560
3567
3567
3557
3552
3552
3550
3550
3538
3540
3541
3536
3536
3540
3551
3534
3531
3531
3528
3536
3536
3536
3536
3532
3535
3537
3537
3524
3529
3544
3539
3539
3529
3533
3535
3533
3533
3541
3529
3546
3540
3540
3547
3545
3542
3533
3533
3546
3549
3535
3540
3540
3548
3547
3544
3559
3559
3544
3551
3539
3550
3550
3555
3557
3546
3550
3550
3558
3565
3550
3558
3558
3555
3552
3554
3554
3558
3548
3556
3560
3560
3570
3561
3562
3561
3561
3566
3569
3571
3566
3566
3569
3579
3582
3571
3571
3569
3581
3573
3565
3565
3570
3571
3576
3572
3572
3576
3572
3579
3576
3576
3575
3573
3575
3584
3584
3569
3575
3565
3572
3572
3576
3573
3574
3574
3574
3576
3577
3570
3570
3564
3575
3574
3572
3572
3574
3568
3585
3588
3588
3582
3572
3576
3575
3575
3575
3579
3581
3574
3574
3579
3579
3584
3582
3582
3579
3578
3577
3590
3590
3595
3587
3587
3594
3594
3587
3586
3594
3594
3590
3588
3608
3596
3596
3597
3591
3602
3603
3603
3610
3600
3612
3602
3602
3598
3587
3604
3599
3599
3609
3605
3603
3614
3614
3612
3613
3613
3606
3606
3626
3625
3609
3610
3610
3621
3620
3614
3630
3630
3632
3632
3617
3629
3629
3634
3637
3639
3639
3636
3629
3636
3642
3642
3643
3635
3639
3643
3643
3646
3645
3645
3647
3647
3636
3655
3655
3648
3648
3666
3659
3656
3659
3659
3672
3664
3659
3648
3648
3658
3674
3672
3686
3686
3665
3678
3658
3668
3668
3663
3668
3666
3674
3674
3672
3665
3680
3680
3681
3663
3685
3684
3684
3684
3671
3683
3693
3693
3671
3689
3683
3678
3678
3688
3684
3697
3694
3694
3688
3689
3697
3697
3697
3694
3703
3692
3700
3700
3694
3702
3701
3708
3708
3703
3709
3700
3707
3707
3703
3704
3709
3710
3710
3715
3718
3711
3711
3717
3713
3722
3717
3717
3720
3703
3727
3724
3724
3718
3716
3734
3723
3723
3739
3726
3727
3731
3731
3735
3732
3733
3731
3731
3725
3738
3741
3742
3742
3742
3751
3734
3732
3732
3745
3742
3739
3746
3746
3737
3744
3759
3752
3752
3764
3746
3758
3758
3750
3755
3753
3764
3764
3766
3751
3755
3771
3771
3766
3767
3762
3773
3773
3768
3776
3769
3773
3773
3779
3772
3774
3767
3767
3766
3764
3772
3767
3767
3763
3775
3762
3765
3765
3752
3751
3740
3740
3740
3742
3734
3730
3713
3713
3718
3695
3695
3695
3695
3688
3669
3665
3665
3646
3643
3649
3639
3639
3641
3619
3612
3597
3597
3605
3594
3592
3572
3572
3583
3554
3572
3562
3562
3562
3556
3545
3544
3544
3549
3546
3534
3538
3538
3529
3533
3536
3528
3528
3526
3523
3527
3516
3516
3530
3529
3523
3523
3526
3521
3524
3518
3518
3531
3521
3523
3528
3528
3521
3519
3528
3528
3528
3530
3525
3533
3531
3531
3542
3535
3530
3535
3535
3530
3554
3534
3534
3534
3540
3543
3543
3545
3545
3542
3546
3543
3546
3546
3538
3545
3546
3546
3531
3552
3550
3546
3546
3550
3549
3543
3556
3556
3539
3553
3557
3557
3557
3559
3554
3552
3555
3555
3560
3558
3561
3562
3562
3562
3569
3557
3565
3565
3559
3570
3553
3566
3566
3571
3569
3559
3564
3564
3570
3570
3561
3567
3567
3566
3565
3570
3570
3570
3558
3571
3570
3570
3567
3567
3569
3562
3562
3574
3567
3582
3568
3568
3575
3565
3572
3568
3568
3566
3571
3564
3568
3568
3568
3578
3567
3575
3575
3571
3573
3565
3580
3580
3571
3578
3566
3583
3583
3574
3570
3564
3581
3581
3565
3575
3570
3570
3576
3585
3582
3576
3576
3579
3572
3581
3582
3582
3574
3587
3595
3595
3595
3594
3591
3585
3597
3597
3594
3587
3596
3603
3603
3605
3604
3601
3605
3605
3603
3615
3605
3612
3612
3614
3610
3617
3617
3617
3608
3602
3624
3624
3620
3621
3628
3620
3620
3619
3636
3620
3626
3626
3622
3619
3630
3635
3635
3629
3633
3637
3636
3636
3638
3641
3635
3622
3622
3653
3646
3650
3658
3658
3646
3658
3647
3650
3650
3651
3651
3654
3648
3648
3654
3653
3659
3653
3653
3649
3663
3668
3668
3665
3676
3667
3678
3678
3672
3664
3665
3672
3672
3672
3670
3678
3667
3667
3673
3681
3678
3673
3673
3678
3681
3677
3681
3681
3681
3687
3681
3696
3696
3684
3699
3682
3681
3681
3689
3688
3693
3690
3690
3695
3686
3688
3698
3698
3687
3707
3686
3686
3697
3689
3706
3696
3696
3679
3703
3706
3697
3697
3703
3697
3712
3704
3704
3695
3698
3715
3708
3708
3701
3711
3711
3715
3715
3718
3719
3714
3711
3711
3718
3716
3721
3719
3719
3720
3715
3720
3727
3727
3715
3724
3723
3723
3730
3732
3736
3746
3746
3731
3722
3745
3737
3737
3730
3734
3732
3738
3738
3737
3741
3741
3750
3750
3749
3745
3744
3744
3744
3739
3748
3740
3747
3747
3748
3739
3737
3735
3735
3722
3727
3720
3717
3717
3691
3705
3687
3695
3695
3694
3689
3682
3682
3674
3662
3663
3653
3653
3645
3629
3630
3625
3625
3622
3605
3604
3598
3598
3596
3588
3576
3576
3576
3571
3566
3569
3562
3562
3556
3552
3546
3553
3553
3550
3541
3539
3527
3527
3536
3540
3536
3533
3533
3522
3535
3539
3539
3532
3544
3534
3531
3531
3532
3532
3530
3536
3536
3537
3531
3542
3541
3541
3539
3537
3548
3543
3543
3539
3548
3543
3544
3544
3549
3543
3558
3557
3557
3550
3552
3563
3558
3558
3563
3577
3563
3566
3566
3561
3566
3565
3556
3556
3569
3574
3585
3585
3575
3577
3570
3578
3578
3580
3580
3596
3583
3583
3578
3583
3592
3578
3578
3592
3585
3589
3588
3588
3590
3585
3596
3604
3604
3593
3597
3585
3592
3592
3588
3611
3581
3593
3593
3601
3600
3586
3584
3584
3591
3593
3588
3592
3592
3596
3596
3599
3599
3587
3584
3589
3588
3588
3583
3575
3584
3588
3588
3583
3581
3578
3584
3584
3598
3585
3592
3594
3594
3591
3587
3589
3594
3594
3603
3596
3587
3595
3595
3588
3594
3590
3594
3594
3594
3595
3594
3602
3602
3594
3598
3594
3599
3599
3591
3598
3600
3600
3603
3600
3613
3604
3604
3599
3606
3611
3605
3605
3611
3609
3623
3613
3613
3605
3613
3620
3609
3609
3618
3623
3624
3621
3621
3625
3627
3616
3630
3630
3627
3629
3628
3633
3633
3634
3640
3609
3630
3630
3638
3640
3648
3648
3641
3637
3644
3643
3643
3653
3650
3650
3647
3647
3642
3646
3656
3652
3652
3656
3654
3669
3668
3668
3667
3664
3661
3664
3664
3665
3656
3660
3669
3669
3667
3661
3672
3675
3675
3666
3678
3669
3680
3680
3690
3677
3683
3689
3689
3683
3681
3691
3691
3683
3689
3693
3688
3688
3687
3688
3690
3688
3688
3690
3692
3694
3694
3694
3701
3696
3700
3697
3697
3706
3701
3700
3673
3673
3702
3697
3695
3704
3704
3702
3712
3712
3710
3710
3708
3714
3717
3714
3714
3711
3721
3709
3724
3724
3716
3711
3721
3721
3723
3716
3715
3726
3726
3726
3721
3725
3726
3726
3727
3722
3727
3726
3726
3733
3724
3739
3741
3741
3737
3737
3737
3743
3743
3741
3742
3730
3751
3751
3738
3743
3748
3744
3744
3748
3748
3740
3751
3751
3750
3763
3752
3749
3749
3743
3749
3752
3752
3743
3725
3751
3739
3739
3720
3721
3716
3713
3713
3717
3704
3703
3693
3693
3690
3684
3685
3667
3667
3660
3657
3654
3639
3639
3638
3628
3622
3626
3626
3612
3606
3602
3581
3581
3591
3594
3573
3579
3579
3568
3564
3552
3544
3544
3552
3562
3547
3547
3548
3542
3546
3539
3539
3536
3534
3541
3540
3540
3543
3533
3540
3529
3529
3523
3539
3545
3533
3533
3532
3540
3534
3535
3535
3532
3533
3528
3532
3532
3536
3538
3550
3540
3540
3535
3542
3547
3545
3545
3548
3544
3548
3548
3534
3549
3551
3553
3553
3552
3550
3548
3563
3563
3543
3556
3561
3559
3559
3558
3565
3559
3559
3559
3557
3569
3561
3570
3570
3567
3567
3565
3565
3565
3577
3574
3570
3570
3570
3571
3571
3569
3577
3577
3576
3577
3585
3578
3578
3585
3587
3582
3582
3581
3579
3577
3573
3573
3578
3586
3584
3588
3588
3580
3582
3580
3578
3578
3579
3571
3576
3579
3579
3590
3570
3584
3581
3581
3581
3589
3574
3579
3579
3583
3583
3569
3583
3583
3585
3579
3581
3568
3568
3583
3588
3584
3579
3579
3587
3597
3574
3574
3593
3580
3602
3587
3587
3590
3582
3586
3591
3591
3583
3589
3591
3591
3591
3597
3592
3600
3595
3595
3599
3597
3603
3593
3593
3604
3601
3602
3597
3597
3602
3606
3603
3605
3605
3614
3610
3597
3626
3626
3603
3619
3614
3613
3613
3616
3623
3616
3616
3613
3609
3612
3616
3616
3625
3624
3633
3624
3624
3622
3632
3637
3617
3617
3629
3636
3638
3637
3637
3648
3635
3633
3647
3647
3635
3643
3649
3640
3640
3634
3643
3643
3640
3640
3643
3648
3655
3650
3650
3647
3658
3659
3661
3661
3657
3661
3644
3644
3661
3660
3663
3665
3665
3662
3659
3665
3661
3661
3664
3669
3668
3661
3661
3661
3664
3675
3669
3669
3696
3669
3675
3680
3680
3675
3670
3677
3679
3679
3680
3686
3673
3683
3683
3679
3681
3681
3690
3690
3694
3687
3679
3687
3687
3687
3687
3688
3688
3690
3690
3688
3690
3690
3685
3689
3691
3694
3694
3684
3694
3707
3691
3691
3692
3696
3697
3708
3708
3693
3695
3704
3702
3702
3700
3704
3711
3706
3706
3705
3700
3702
3702
3702
3705
3722
3714
3710
3710
3717
3700
3714
3716
3716
3733
3726
3716
3716
3728
3730
3721
3724
3724
3719
3713
3709
3712
3712
3719
3704
3711
3700
3700
3701
3698
3696
3700
3700
3682
3681
3681
3671
3671
3658
3646
3645
3646
3646
3646
3631
3626
3623
3623
3616
3607
3601
3596
3596
3588
3593
3581
3581
3568
3567
3559
3555
3555
3546
3544
3543
3544
3544
3539
3532
3533
3527
3527
3529
3520
3517
3523
3523
3514
3517
3513
3515
3515
3510
3500
3512
3507
3507
3514
3516
3511
3507
3507
3521
3515
3510
3514
3514
3520
3514
3525
3516
3516
3523
3524
3516
3516
3501
3523
3535
3521
3521
3517
3522
3524
3517
3517
3527
3522
3516
3527
3527
3526
3531
3525
3532
3532
3522
3534
3528
3535
3535
3534
3532
3534
3539
3539
3539
3538
3526
3535
3535
3543
3552
3546
3533
3533
3549
3540
3551
3547
3547
3542
3552
3547
3547
3540
3544
3553
3540
3540
3551
3553
3538
3547
3547
3545
3549
3555
3547
3547
3546
3542
3572
3548
3548
3560
3551
3545
3547
3547
3544
3551
3556
3545
3545
3544
3547
3549
3542
3542
3555
3564
3553
3552
3552
3557
3549
3542
3542
3555
3549
3551
3548
3548
3542
3549
3558
3547
3547
3557
3556
3554
3552
3552
3550
3547
3554
3553
3553
3547
3560
3555
3555
3555
3555
3544
3560
3561
3561
3561
3554
3554
3556
3556
3556
3566
3556
3574
3574
3562
3567
3559
3559
3559
3566
3568
3567
3567
3577
3573
3576
3592
3592
3570
3577
3570
3577
3577
3580
3558
3579
3581
3581
3586
3572
3587
3595
3595
3582
3577
3592
3586
3586
3590
3590
3593
3591
3591
3584
3598
3591
3596
3596
3602
3603
3600
3592
3592
3603
3602
3611
3601
3601
3603
3595
3605
3605
3609
3609
3609
3613
3613
3616
3605
3614
3613
3613
3618
3613
3615
3622
3622
3619
3621
3621
3622
3622
3611
3629
3626
3627
3627
3622
3622
3621
3620
3620
3628
3632
3626
3633
3633
3634
3632
3621
3628
3628
3638
3629
3643
3643
3630
3642
3633
3631
3631
3634
3638
3628
3634
3634
3647
3641
3649
3638
3638
3630
3643
3647
3649
3649
3643
3647
3652
3648
3648
3646
3655
3658
3651
3651
3655
3649
3651
3653
3653
3666
3655
3659
3658
3658
3657
3668
3659
3668
3668
3661
3664
3671
3671
3665
3662
3665
3665
3665
3674
3657
3673
3659
3659
3666
3660
3676
3674
3674
3666
3653
3663
3656
3656
3666
3658
3652
3645
3645
3650
3632
3634
3634
3634
3617
3608
3602
3605
3605
3604
3593
3576
3584
3584
3577
3573
3555
3559
3559
3540
3547
3548
3548
3532
3519
3527
3515
3515
3511
3513
3508
3495
3495
3500
3490
3496
3503
3503
3493
3488
3486
3485
3485
3484
3476
3475
3477
3477
3489
3477
3487
3482
3482
3475
3483
3477
3475
3475
3477
3481
3490
3478
3478
3475
3476
3476
3476
3477
3476
3479
3485
3485
3483
3498
3482
3490
3490
3479
3475
3497
3481
3481
3483
3486
3495
3486
3486
3486
3495
3482
3490
3490
3500
3492
3488
3491
3491
3493
3483
3502
3494
3494
3496
3507
3506
3498
3498
3498
3503
3504
3503
3503
3514
3503
3505
3505
3504
3501
3506
3497
3497
3509
3510
3508
3498
3498
3516
3509
3515
3523
3523
3515
3522
3514
3517
3517
3506
3515
3516
3516
3516
3517
3528
3500
3516
3516
3518
3500
3513
3521
3521
3525
3523
3516
3516
3516
3522
3521
3518
3515
3515
3525
3520
3519
3519
3509
3523
3511
3521
3521
3516
3514
3518
3520
3520
3513
3509
3520
3524
3524
3518
3511
3515
3510
3510
3523
3530
3522
3518
3518
3522
3530
3519
3530
3530
3525
3535
3531
3540
3540
3528
3529
3528
3533
3533
3539
3531
3536
3539
3539
3532
3542
3545
3545
3547
3542
3554
3551
3551
3549
3546
3536
3554
3554
3556
3550
3560
3557
3557
3550
3562
3577
3554
3554
3561
3565
3560
3568
3568
3572
3565
3569
3564
3564
3569
3567
3554
3575
3575
3578
3567
3587
3576
3576
3579
3581
3571
3571
3586
3583
3590
3591
3591
3587
3594
3581
3584
3584
3586
3584
3595
3593
3593
3592
3587
3602
3587
3587
3595
3601
3597
3587
3587
3597
3603
3596
3607
3607
3602
3608
3603
3614
3614
3623
3617
3608
3619
3619
3615
3608
3612
3616
3616
3619
3616
3618
3618
3622
3610
3616
3623
3623
3614
3620
3618
3619
3619
3620
3620
3625
3626
3626
3624
3621
3625
3625
3625
3632
3629
3628
3629
3629
3626
3623
3628
3626
3626
3628
3636
3644
3642
3642
3639
3635
3634
3639
3639
3636
3639
3645
3646
3646
3645
3640
3649
3649
3645
3652
3652
3650
3650
3644
3655
3648
3652
3652
3648
3649
3660
3655
3655
3654
3663
3659
3658
3658
3650
3660
3655
3644
3644
3645
3646
3646
3642
3642
3638
3639
3623
3628
3628
3618
3605
3601
3599
3599
3597
3585
3593
3577
3577
3566
3568
3547
3547
3548
3544
3539
3527
3527
3524
3522
3525
3508
3508
3504
3511
3506
3499
3499
3496
3493
3501
3492
3492
3494
3482
3473
3482
3482
3486
3486
3478
3483
3483
3481
3473
3478
3477
3477
3473
3470
3466
3469
3469
3478
3472
3483
3483
3467
3480
3486
3465
3465
3486
3474
3482
3475
3475
3479
3477
3473
3468
3468
3479
3484
3480
3488
3488
3510
3483
3492
3486
3486
3491
3486
3484
3487
3487
3493
3490
3485
3492
3492
3491
3486
3491
3490
3490
3499
3496
3487
3493
3493
3495
3497
3510
3510
3497
3498
3503
3503
3503
3508
3496
3505
3513
3513
3505
3502
3500
3521
3521
3521
3508
3513
3509
3509
3514
3515
3510
3510
3510
3506
3514
3517
3519
3519
3506
3518
3512
3506
3506
3516
3516
3522
3515
3515
3506
3515
3506
3512
3512
3511
3519
3517
3517
3509
3527
3514
3516
3516
3515
3514
3514
3525
3525
3515
3516
3521
3513
3513
3520
3525
3520
3518
3518
3518
3518
3518
3513
3513
3526
3506
3528
3524
3524
3528
3529
3517
3516
3516
3528
3536
3522
3533
3533
3525
3527
3540
3540
3540
3535
3536
3532
3532
3544
3532
3539
3537
3537
3536
3541
3549
3542
3542
3544
3542
3545
3535
3535
3543
3535
3560
3548
3548
3552
3544
3556
3568
3568
3559
3559
3550
3556
3556
3551
3568
3554
3555
3555
3557
3565
3562
3568
3568
3566
3574
3573
3592
3592
3566
3583
3574
3574
3568
3581
3574
3585
3585
3578
3579
3553
3574
3574
3585
3579
3584
3592
3592
3587
3587
3591
3588
3588
3584
3583
3602
3594
3594
3587
3597
3586
3588
3588
3592
3592
3587
3598
3598
3598
3603
3598
3600
3600
3598
3607
3606
3606
3594
3594
3596
3602
3602
3604
3608
3616
3613
3613
3603
3616
3605
3613
3613
3606
3601
3616
3607
3607
3606
3607
3614
3608
3608
3616
3613
3617
3613
3613
3617
3629
3621
3619
3619
3616
3620
3623
3627
3627
3620
3625
3613
3618
3618
3638
3631
3631
3631
3621
3623
3626
3628
3628
3627
3634
3639
3632
3632
3638
3642
3636
3634
3634
3635
3638
3634
3635
3635
3639
3645
3653
3642
3642
3645
3644
3644
3643
3643
3645
3638
3639
3636
3636
3645
3638
3635
3630
3630
3630
3616
3620
3630
3630
3616
3613
3603
3603
3599
3597
3594
3587
3587
3576
3586
3575
3557
3557
3558
3549
3557
3541
3541
3534
3540
3530
3519
3519
3514
3514
3511
3501
3501
3513
3500
3502
3495
3495
3486
3499
3493
3496
3496
3481
3484
3485
3481
3481
3476
3486
3481
3481
3479
3480
3482
3472
3472
3476
3475
3486
3480
3480
3483
3479
3485
3473
3473
3481
3480
3483
3487
3487
3488
3486
3484
3487
3487
3488
3489
3483
3484
3484
3491
3494
3490
3497
3497
3492
3481
3493
3498
3498
3494
3496
3504
3495
3495
3495
3502
3490
3490
3507
3498
3498
3501
3501
3518
3497
3503
3504
3504
3491
3507
3507
3504
3504
3509
3516
3514
3513
3513
3513
3513
3531
3510
3510
3502
3514
3518
3516
3516
3513
3520
3511
3514
3514
3520
3517
3512
3512
3512
3503
3502
3505
3510
3510
3516
3511
3507
3507
3512
3505
3518
3514
3514
3512
3507
3510
3508
3508
3501
3510
3514
3508
3508
3505
3517
3519
3512
3512
3497
3521
3500
3507
3507
3510
3518
3528
3519
3519
3517
3517
3521
3518
3518
3519
3520
3517
3513
3513
3492
3519
3518
3518
3518
3524
3532
3523
3523
3522
3524
3532
3519
3519
3523
3520
3528
3523
3523
3527
3526
3533
3537
3537
3524
3536
3534
3542
3542
3542
3544
3553
3538
3538
3545
3553
3543
3546
3546
3555
3538
3548
3552
3552
3547
3555
3550
3554
3554
3564
3554
3554
3554
3558
3561
3562
3569
3569
3557
3559
3554
3568
3568
3559
3562
3572
3558
3558
3568
3572
3578
3573
3573
3565
3570
3579
3575
3575
3569
3567
3579
3574
3574
3573
3569
3579
3582
3582
3582
3581
3571
3576
3576
3588
3589
3581
3586
3586
3590
3592
3584
3584
3583
3590
3588
3592
3592
3587
3576
3593
3592
3592
3593
3594
3607
3594
3594
3592
3593
3597
3597
3597
3600
3592
3597
3601
3601
3595
3605
3602
3603
3603
3602
3616
3605
3611
3611
3603
3600
3596
3604
3604
3606
3613
3611
3611
3612
3611
3618
3610
3610
3605
3618
3613
3618
3618
3612
3608
3612
3613
3613
3611
3610
3621
3612
3612
3621
3624
3616
3617
3617
3618
3625
3620
3624
3624
3611
3625
3615
3619
3619
3620
3612
3608
3599
3599
3599
3604
3602
3602
3602
3591
3562
3581
3581
3577
3562
3564
3561
3561
3560
3548
3546
3538
3538
3520
3521
3536
3515
3515
3511
3502
3520
3495
3495
3491
3491
3486
3482
3482
3482
3477
3467
3473
3473
3467
3466
3457
3458
3458
3460
3456
3462
3453
3453
3447
3449
3439
3439
3445
3436
3438
3444
3444
3439
3447
3447
3440
3440
3443
3442
3435
3447
3447
3452
3444
3447
3431
3431
3443
3458
3442
3444
3444
3437
3451
3441
3448
3448
3446
3449
3451
3446
3446
3446
3440
3442
3436
3436
3446
3453
3441
3441
3441
3438
3438
3453
3453
3435
3446
3456
3471
3471
3447
3444
3449
3446
3446
3452
3456
3457
3457
3457
3454
3455
3448
3450
3450
3457
3454
3451
3451
3451
3460
3459
3455
3450
3450
3455
3464
3454
3459
3459
3447
3463
3457
3464
3464
3465
3469
3462
3462
3455
3455
3470
3456
3456
3459
3447
3460
3464
3464
3459
3469
3463
3461
3461
3457
3460
3460
3463
3463
3456
3460
3461
3466
3466
3460
3470
3466
3461
3461
3463
3463
3467
3464
3464
3469
3466
3464
3485
3485
3469
3455
3472
3470
3470
3469
3477
3467
3467
3474
3458
3465
3473
3473
3465
3472
3477
3484
3484
3472
3477
3478
3478
3478
3475
3476
3475
3475
3475
3477
3481
3484
3481
3481
3490
3489
3488
3484
3484
3494
3491
3485
3496
3496
3492
3484
3495
3492
3492
3492
3498
3497
3497
3500
3491
3501
3506
3506
3506
3482
3508
3507
3507
3501
3505
3508
3518
3518
3514
3509
3504
3515
3515
3507
3509
3509
3516
3516
3533
3512
3517
3516
3516
3511
3524
3517
3524
3524
3517
3527
3516
3519
3519
3525
3527
3524
3525
3525
3535
3527
3542
3542
3529
3531
3538
3530
3530
3533
3532
3533
3541
3541
3537
3529
3544
3542
3542
3540
3547
3536
3537
3537
3539
3539
3544
3546
3546
3547
3548
3549
3552
3552
3554
3552
3554
3560
3560
3559
3564
3553
3541
3541
3567
3555
3566
3566
3554
3556
3565
3554
3554
3553
3552
3566
3572
3572
3562
3563
3573
3567
3567
3564
3574
3563
3559
3559
3568
3568
3563
3555
3555
3562
3566
3575
3575
3575
3569
3589
3575
3576
3576
3572
3572
3575
3580
3580
3575
3573
3575
3571
3571
3576
3569
3574
3574
3570
3565
3575
3565
3565
3554
3554
3547
3549
3549
3551
3537
3531
3544
3544
3520
3521
3517
3515
3515
3499
3498
3500
3482
3482
3492
3487
3480
3479
3479
3460
3470
3450
3452
3452
3450
3451
3446
3441
3441
3441
3440
3425
3425
3426
3434
3430
3426
3426
3419
3415
3414
3412
3412
3405
3415
3408
3413
3413
3398
3409
3405
3406
3406
3403
3407
3411
3401
3401
3406
3418
3409
3400
3400
3406
3412
3406
3397
3397
3396
3400
3409
3405
3405
3398
3405
3406
3397
3397
3403
3405
3391
3391
3403
3402
3411
3410
3410
3405
3405
3404
3414
3414
3409
3402
3410
3409
3409
3425
3410
3400
3413
3413
3411
3414
3403
3399
3399
3402
3420
3414
3404
3404
3412
3413
3413
3418
3418
3417
3416
3410
3417
3417
3407
3423
3420
3420
3413
3416
3423
3419
3419
3420
3423
3417
3420
3420
3420
3420
3423
3429
3429
3420
3422
3427
3420
3420
3419
3433
3424
3425
3425
3429
3427
3424
3426
3426
3427
3428
3421
3421
3421
3427
3431
3426
3430
3430
3427
3430
3428
3430
3430
3431
3425
3428
3428
3418
3435
3430
3442
3442
3432
3434
3432
3433
3433
3432
3431
3433
3433
3433
3436
3433
3447
3437
3437
3440
3438
3441
3441
3441
3449
3432
3442
3449
3449
3447
3461
3434
3443
3443
3445
3449
3448
3452
3452
3443
3454
3460
3460
3451
3457
3456
3466
3466
3456
3459
3463
3460
3460
3463
3460
3460
3464
3464
3460
3469
3474
3472
3472
3468
3469
3473
3478
3478
3477
3479
3477
3473
3473
3481
3482
3481
3482
3482
3482
3511
3481
3485
3485
3482
3491
3493
3488
3488
3487
3489
3494
3494
3490
3488
3499
3492
3492
3502
3489
3500
3495
3495
3495
3496
3493
3501
3501
3504
3488
3509
3490
3490
3508
3509
3500
3520
3520
3511
3515
3496
3514
3514
3517
3522
3515
3510
3510
3523
3510
3522
3513
3513
3515
3518
3514
3514
3518
3513
3531
3527
3527
3527
3505
3526
3525
3525
3531
3533
3532
3524
3524
3526
3524
3528
3534
3534
3531
3540
3550
3534
3534
3534
3544
3529
3539
3539
3523
3540
3541
3539
3539
3529
3545
3539
3547
3547
3540
3544
3544
3549
3549
3552
3553
3530
3530
3551
3542
3564
3560
3560
3550
3554
3550
3553
3553
3559
3555
3564
3551
3551
3559
3557
3563
3557
3557
3561
3555
3562
3563
3563
3558
3565
3546
3542
3542
3554
3552
3543
3533
3533
3536
3531
3528
3521
3521
3526
3520
3513
3513
3505
3505
3511
3499
3499
3487
3481
3479
3486
3486
3469
3464
3468
3459
3459
3466
3458
3447
3445
3445
3445
3429
3436
3431
3431
3432
3428
3422
3423
3423
3406
3431
3415
3406
3406
3414
3410
3413
3412
3412
3414
3415
3404
3403
3403
3406
3409
3410
3410
3404
3407
3405
3405
3405
3408
3400
3417
3408
3408
3404
3402
3405
3411
3411
3416
3408
3419
3416
3416
3411
3407
3404
3405
3405
3411
3421
3413
3410
3410
3412
3413
3409
3410
3410
3411
3413
3408
3432
3432
3425
3412
3414
3412
3412
3406
3415
3418
3418
3422
3412
3408
3420
3420
3416
3422
3423
3429
3429
3425
3427
3423
3426
3426
3432
3425
3425
3432
3432
3426
3427
3426
3421
3421
3429
3436
3430
3427
3427
3432
3438
3428
3422
3422
3433
3435
3434
3425
3425
3432
3429
3438
3428
3428
3439
3433
3438
3438
3433
3430
3430
3428
3428
3430
3434
3438
3434
3434
3433
3420
3447
3431
3431
3432
3438
3437
3427
3427
3462
3442
3428
3430
3430
3440
3439
3430
3436
3436
3434
3448
3428
3436
3436
3438
3433
3441
3445
3445
3445
3443
3447
3447
3444
3438
3456
3448
3448
3452
3449
3459
3445
3445
3453
3451
3449
3460
3460
3456
3452
3464
3474
3474
3460
3456
3465
3466
3466
3465
3463
3468
3468
3468
3465
3477
3471
3463
3463
3468
3478
3477
3468
3468
3476
3475
3480
3478
3478
3475
3469
3487
3487
3479
3480
3487
3482
3482
3490
3492
3491
3496
3496
3489
3484
3490
3486
3486
3496
3499
3504
3490
3490
3497
3498
3507
3497
3497
3506
3504
3495
3505
3505
3504
3507
3502
3512
3512
3514
3514
3511
3516
3516
3505
3514
3521
3518
3518
3510
3521
3521
3521
3525
3530
3530
3517
3517
3520
3525
3529
3532
3532
3533
3533
3528
3541
3541
3521
3538
3537
3538
3538
3536
3537
3545
3538
3538
3546
3542
3542
3545
3545
3544
3542
3547
3558
3558
3551
3555
3552
3548
3548
3548
3559
3557
3557
3558
3557
3570
3556
3556
3550
3560
3560
3560
3560
3558
3559
3564
3566
3566
3564
3562
3557
3572
3572
3565
3578
3576
3580
3580
3567
3584
3575
3582
3582
3579
3580
3582
3581
3581
3581
3590
3589
3583
3583
3590
3591
3586
3589
3589
3586
3587
3591
3591
3595
3591
3589
3585
3585
3590
3580
3592
3582
3582
3581
3575
3580
3580
3580
3573
3576
3577
3565
3565
3564
3560
3578
3550
3550
3549
3548
3530
3537
3537
3536
3530
3519
3526
3526
3503
3508
3503
3499
3499
3502
3494
3498
3498
3487
3493
3501
3485
3485
3475
3470
3467
3469
3469
3466
3476
3466
3467
3467
3466
3462
3482
3467
3467
3455
3456
3462
3461
3461
3461
3458
3460
3454
3454
3459
3461
3461
3459
3459
3454
3461
3468
3458
3458
3471
3458
3458
3462
3462
3471
3466
3470
3470
3461
3457
3467
3460
3460
3468
3475
3466
3482
3482
3464
3455
3477
3468
3468
3467
3459
3482
3469
3469
3468
3462
3479
3468
3468
3469
3470
3477
3474
3474
3475
3480
3471
3479
3479
3471
3457
3475
3481
3481
3467
3480
3478
3478
3478
3474
3485
3467
3467
3482
3480
3479
3487
3487
3480
3467
3474
3480
3480
3472
3476
3485
3487
3487
3488
3484
3477
3482
3482
3484
3501
3471
3487
3487
3486
3497
3477
3484
3484
3480
3486
3482
3486
3486
3485
3485
3488
3482
3482
3496
3489
3484
3484
3492
3491
3490
3489
3489
3485
3489
3484
3495
3495
3496
3494
3502
3497
3497
3496
3502
3496
3481
3481
3497
3496
3499
3490
3490
3499
3503
3505
3507
3507
3507
3505
3506
3511
3511
3512
3503
3508
3511
3511
3508
3497
3511
3511
3501
3508
3515
3516
3516
3514
3513
3517
3513
3513
3519
3518
3516
3532
3532
3522
3522
3534
3517
3517
3519
3535
3519
3530
3530
3525
3531
3538
3535
3535
3542
3534
3538
3530
3530
3538
3543
3530
3536
3536
3545
3546
3527
3546
3546
3547
3546
3547
3547
3553
3550
3550
3554
3554
3563
3548
3563
3554
3554
3555
3563
3564
3558
3558
3561
3560
3566
3564
3564
3563
3573
3563
3573
3573
3574
3577
3569
3566
3566
3569
3577
3572
3579
3579
3579
3581
3584
3576
3576
3580
3590
3587
3596
3596
3582
3579
3600
3600
3591
3584
3598
3587
3587
3592
3580
3603
3589
3589
3602
3615
3602
3596
3596
3591
3591
3606
3613
3613
3592
3607
3597
3580
3580
3604
3599
3606
3595
3595
3604
3616
3601
3611
3611
3613
3609
3606
3619
3619
3611
3613
3613
3613
3618
3617
3631
3621
3621
3637
3623
3626
3635
3635
3636
3630
3629
3620
3620
3634
3627
3633
3632
3632
3634
3633
3638
3635
3635
3634
3642
3633
3640
3640
3640
3644
3625
3650
3650
3646
3646
3640
3642
3642
3641
3630
3641
3640
3640
3643
3647
3640
3640
3644
3631
3626
3626
3626
3616
3606
3607
3603
3603
3595
3600
3602
3599
3599
3589
3597
3591
3581
3581
3576
3568
3572
3578
3578
3563
3566
3564
3557
3557
3549
3553
3547
3546
3546
3545
3540
3535
3537
3537
3533
3537
3532
3532
3534
3532
3535
3526
3526
3532
3524
3528
3537
3537
3533
3531
3533
3525
3525
3529
3509
3532
3525
3525
3537
3529
3527
3533
3533
3519
3535
3532
3533
3533
3525
3540
3524
3521
3521
3535
3533
3533
3536
3536
3541
3541
3529
3546
3546
3525
3534
3548
3548
3545
3531
3543
3541
3541
3546
3542
3544
3550
3550
3545
3551
3549
3546
3546
3554
3545
3550
3556
3556
3554
3557
3557
3555
3555
3551
3558
3558
3555
3555
3564
3563
3554
3550
3550
3559
3566
3561
3562
3562
3561
3564
3547
3561
3561
3561
3560
3555
3555
3575
3568
3561
3562
3562
3573
3558
3570
3551
3551
3562
3563
3563
3566
3566
3563
3572
3570
3567
3567
3564
3568
3564
3565
3565
3569
3551
3573
3562
3562
3569
3574
3562
3563
3563
3568
3570
3578
3576
3576
3570
3571
3576
3576
3576
3571
3579
3573
3573
3576
3564
3580
3564
3564
3581
3570
3588
3582
3582
3582
3575
3590
3585
3585
3578
3590
3582
3593
3593
3607
3590
3595
3595
3595
3599
3602
3600
3592
3592
3592
3607
3594
3596
3596
3601
3602
3602
3607
3607
3603
3607
3605
3605
3612
3611
3614
3609
3609
3611
3609
3604
3612
3612
3614
3613
3595
3618
3618
3619
3616
3623
3625
3625
3620
3624
3619
3621
3621
3629
3623
3626
3619
3619
3635
3634
3633
3631
3631
3632
3654
3635
3635
3635
3641
3637
3637
3638
3638
3630
3638
3639
3639
3644
3637
3635
3642
3642
3642
3644
3646
3642
3642
3648
3655
3648
3650
3650
3647
3647
3671
3648
3648
3647
3658
3661
3653
3653
3657
3665
3653
3654
3654
3671
3664
3662
3664
3664
3665
3658
3659
3663
3663
3678
3667
3648
3665
3665
3668
3672
3662
3662
3665
3672
3674
3673
3673
3670
3680
3675
3666
3666
3673
3678
3677
3682
3682
3677
3679
3680
3679
3679
3683
3682
3685
3686
3686
3686
3688
3693
3691
3691
3680
3687
3692
3686
3686
3685
3685
3691
3696
3696
3695
3696
3699
3699
3691
3693
3701
3701
3701
3702
3692
3701
3692
3692
3700
3689
3711
3697
3697
3702
3698
3707
3696
3696
3693
3696
3692
3686
3686
3686
3682
3677
3668
3668
3679
3679
3667
3671
3671
3669
3663
3665
3664
3664
3659
3645
3653
3640
3640
3643
3643
3638
3638
3634
3613
3631
3617
3617
3621
3623
3618
3601
3601
3618
3606
3616
3602
3602
3600
3591
3599
3604
3604
3592
3595
3602
3596
3596
3598
3600
3595
3597
3597
3593
3610
3597
3594
3594
3599
3590
3591
3592
3592
3587
3592
3599
3595
3595
3600
3600
3597
3597
3610
3600
3606
3594
3594
3604
3599
3602
3604
3604
3590
3595
3606
3604
3604
3597
3600
3615
3607
3607
3603
3615
3606
3621
3621
3613
3609
3620
3618
3618
3621
3599
3619
3619
3619
3623
3622
3616
3622
3622
3621
3622
3620
3622
3622
3612
3631
3628
3628
3611
3626
3631
3628
3628
3624
3625
3622
3625
3625
3625
3620
3628
3627
3627
3629
3624
3615
3629
3629
3626
3629
3618
3625
3625
3626
3631
3641
3629
3629
3627
3625
3616
3626
3626
3619
3628
3634
3630
3630
3621
3621
3624
3617
3617
3614
3628
3638
3638
3627
3619
3621
3624
3624
3626
3628
3635
3626
3626
3630
3627
3622
3629
3629
3624
3635
3632
3621
3621
3630
3633
3634
3631
3631
3639
3627
3640
3632
3632
3636
3638
3640
3640
3640
3643
3650
3638
3645
3645
3640
3642
3648
3641
3641
3648
3655
3653
3653
3655
3648
3644
3653
3653
3651
3652
3654
3663
3663
3661
3658
3657
3647
3647
3660
3649
3661
3650
3650
3649
3658
3661
3659
3659
3665
3662
3669
3667
3667
3667
3674
3664
3666
3666
3672
3672
3678
3685
3685
3670
3683
3679
3679
3678
3679
3692
3676
3676
3681
3682
3684
3690
3690
3689
3676
3685
3688
3688
3690
3678
3696
3684
3684
3684
3694
3701
3697
3697
3697
3699
3688
3699
3699
3694
3704
3692
3699
3699
3697
3715
3708
3705
3705
3707
3700
3699
3717
3717
3704
3716
3710
3710
3713
3703
3710
3706
3706
3714
3709
3705
3717
3717
3709
3713
3717
3721
3721
3721
3716
3722
3709
3709
3706
3717
3725
3720
3720
3731
3726
3720
3725
3725
3721
3728
3730
3729
3729
3731
3729
3723
3735
3735
3722
3731
3728
3729
3729
3735
3734
3734
3734
3737
3739
3735
3736
3736
3741
3731
3744
3742
3742
3738
3738
3741
3743
3743
3737
3734
3741
3735
3735
3734
3737
3724
3721
3721
3744
3726
3718
3710
3710
3712
3710
3706
3693
3693
3701
3696
3686
3686
3686
3681
3679
3670
3670
3670
3654
3672
3666
3666
3662
3643
3643
3648
3648
3644
3628
3633
3631
3631
3633
3633
3628
3636
3636
3617
3618
3620
3635
3635
3619
3611
3605
3615
3615
3619
3618
3613
3601
3601
3615
3617
3613
3612
3612
3618
3612
3612
3602
3602
3611
3610
3613
3613
3609
3612
3600
3610
3610
3608
3607
3605
3611
3611
3610
3627
3610
3616
3616
3610
3611
3610
3611
3611
3620
3618
3613
3605
3605
3612
3621
3617
3621
3621
3617
3615
3622
3624
3624
3615
3608
3623
3624
3624
3620
3626
3623
3615
3615
3624
3624
3621
3621
3631
3627
3634
3623
3623
3624
3617
3628
3624
3624
3619
3621
3629
3625
3625
3622
3636
3629
3619
3619
3625
3616
3621
3621
3621
3609
3634
3637
3625
3625
3608
3620
3624
3627
3627
3623
3629
3616
3620
3620
3629
3640
3624
3625
3625
3625
3626
3622
3622
3628
3613
3628
3624
3624
3620
3615
3628
3630
3630
3629
3611
3621
3635
3635
3621
3625
3616
3626
3626
3622
3628
3627
3624
3624
3622
3623
3623
3629
3629
3626
3629
3626
3624
3624
3637
3632
3642
3637
3637
3615
3638
3634
3625
3625
3635
3639
3638
3638
3641
3628
3642
3636
3636
3642
3632
3650
3645
3645
3640
3637
3648
3643
3643
3655
3648
3648
3651
3651
3645
3654
3668
3651
3651
3659
3656
3650
3652
3652
3651
3660
3663
3652
3652
3657
3655
3660
3661
3661
3653
3670
3662
3662
3659
3659
3668
3653
3653
3658
3660
3666
3672
3672
3670
3661
3672
3664
3664
3666
3677
3686
3675
3675
3667
3662
3684
3668
3668
3670
3662
3675
3679
3679
3677
3679
3678
3680
3680
3683
3675
3684
3676
3676
3685
3683
3683
3687
3687
3683
3690
3683
3683
3676
3683
3692
3692
3692
3688
3685
3683
3707
3707
3691
3692
3689
3705
3705
3698
3697
3694
3694
3694
3698
3700
3703
3695
3695
3708
3708
3701
3703
3703
3703
3712
3707
3692
3692
3710
3709
3705
3712
3712
3711
3710
3709
3719
3719
3718
3716
3709
3709
3719
3716
3718
3719
3719
3721
3710
3712
3719
3719
3710
3706
3709
3707
3707
3709
3710
3713
3699
3699
3695
3690
3678
3689
3689
3682
3670
3659
3666
3666
3655
3663
3653
3643
3643
3653
3636
3642
3641
3641
3635
3620
3624
3624
3623
3621
3617
3620
3620
3605
3598
3592
3591
3591
3600
3585
3582
3594
3594
3597
3590
3575
3583
3583
3576
3580
3577
3576
3576
3575
3578
3576
3581
3581
3574
3579
3583
3570
3570
3573
3576
3572
3574
3574
3573
3571
3578
3569
3569
3565
3576
3566
3566
3571
3567
3580
3581
3581
3577
3563
3574
3571
3571
3575
3578
3583
3579
3579
3580
3578
3593
3573
3573
3580
3581
3584
3579
3579
3593
3580
3584
3585
3585
3583
3588
3589
3585
3585
3590
3591
3585
3587
3587
3592
3591
3594
3589
3589
3588
3597
3590
3590
3600
3583
3596
3597
3597
3588
3591
3597
3608
3608
3595
3602
3599
3593
3593
3592
3593
3587
3590
3590
3595
3590
3597
3588
3588
3588
3589
3596
3594
3594
3590
3586
3592
3592
3592
3592
3592
3586
3592
3592
3579
3590
3581
3581
3586
3594
3599
3599
3599
3591
3597
3594
3594
3594
3589
3601
3593
3595
3595
3590
3596
3604
3585
3585
3597
3595
3596
3592
3592
3596
3604
3597
3597
3597
3610
3606
3602
3612
3612
3608
3588
3592
3600
3600
3629
3603
3607
3608
3608
3606
3625
3600
3600
3614
3612
3621
3618
3618
3616
3618
3615
3616
3616
3623
3621
3622
3620
3620
3620
3603
3627
3618
3618
3616
3623
3632
3629
3629
3626
3633
3637
3629
3629
3636
3629
3630
3636
3636
3636
3633
3639
3631
3631
3637
3651
3639
3639
3628
3635
3644
3639
3639
3641
3642
3643
3641
3641
3642
3648
3636
3652
3652
3662
3645
3652
3651
3651
3652
3661
3641
3646
3646
3651
3659
3661
3654
3654
3654
3667
3661
3663
3663
3673
3667
3658
3660
3660
3656
3658
3663
3656
3656
3671
3669
3665
3665
3668
3661
3667
3664
3664
3679
3674
3681
3667
3667
3675
3678
3682
3679
3679
3675
3675
3677
3682
3682
3680
3686
3679
3678
3678
3686
3691
3713
3687
3687
3693
3693
3684
3695
3695
3694
3681
3687
3690
3690
3690
3693
3690
3699
3699
3702
3696
3693
3693
3695
3691
3698
3684
3684
3694
3688
3692
3674
3674
3680
3681
3678
3680
3680
3673
3667
3671
3667
3667
3662
3653
3650
3648
3648
3641
3641
3631
3630
3630
3625
3627
3615
3614
3614
3614
3610
3602
3598
3598
3598
3587
3594
3584
3584
3582
3591
3571
3571
3581
3573
3569
3566
3566
3564
3555
3563
3575
3575
3558
3550
3566
3559
3559
3545
3553
3556
3553
3553
3552
3551
3553
3551
3551
3545
3562
3553
3555
3555
3553
3556
3561
3543
3543
3557
3555
3546
3562
3562
3555
3553
3566
3566
3549
3557
3563
3562
3562
3554
3561
3546
3556
3556
3561
3557
3567
3560
3560
3562
3558
3570
3570
3570
3568
3565
3574
3579
3579
3569
3568
3572
3568
3568
3571
3573
3573
3586
3586
3570
3577
3572
3579
3579
3571
3579
3572
3598
3598
3590
3584
3580
3580
3572
3573
3582
3576
3576
3576
3570
3577
3573
3573
3577
3576
3580
3573
3573
3576
3571
3577
3573
3573
3558
3582
3573
3580
3580
3582
3581
3580
3575
3575
3582
3580
3579
3576
3576
3570
3577
3579
3574
3574
3595
3580
3579
3574
3574
3578
3573
3582
3582
3576
3574
3582
3579
3579
3583
3577
3587
3577
3577
3581
3577
3582
3588
3588
3587
3581
3587
3583
3583
3596
3588
3589
3588
3588
3609
3596
3583
3579
3579
3596
3604
3590
3587
3587
3599
3601
3596
3594
3594
3596
3605
3609
3603
3603
3607
3596
3602
3602
3602
3579
3616
3601
3601
3607
3609
3607
3609
3609
3615
3614
3611
3621
3621
3620
3609
3616
3622
3622
3608
3619
3616
3618
3618
3624
3625
3625
3626
3626
3633
3624
3623
3634
3634
3629
3629
3630
3629
3629
3642
3631
3633
3633
3628
3630
3643
3647
3647
3639
3636
3645
3645
3645
3640
3655
3644
3644
3644
3637
3631
3646
3649
3649
3653
3662
3640
3645
3645
3650
3646
3653
3647
3647
3652
3654
3639
3652
3652
3656
3639
3661
3656
3656
3661
3653
3657
3668
3668
3662
3671
3663
3663
3666
3663
3663
3655
3655
3672
3658
3667
3672
3672
3673
3666
3665
3668
3668
3676
3678
3674
3674
3674
3676
3675
3676
3680
3680
3677
3687
3678
3680
3680
3680
3689
3684
3686
3686
3683
3689
3676
3681
3681
3686
3689
3680
3670
3670
3672
3666
3657
3657
3663
3662
3663
3653
3653
3630
3644
3642
3643
3643
3644
3631
3627
3619
3619
3620
3610
3603
3602
3602
3605
3604
3597
3588
3588
3596
3590
3579
3576
3576
3564
3577
3564
3567
3567
3565
3565
3561
3553
3553
3554
3560
3554
3557
3557
3555
3549
3547
3547
3549
3560
3553
3549
3549
3558
3533
3548
3565
3565
3551
3545
3543
3543
3543
3548
3540
3543
3547
3547
3554
3546
3555
3549
3549
3554
3554
3554
3554
3554
3568
3559
3556
3551
3551
3561
3564
3555
3557
3557
3563
3562
3562
3563
3563
3563
3560
3546
3546
3568
3569
3574
3567
3567
3567
3569
3565
3569
3569
3563
3570
3565
3567
3567
3573
3575
3582
3574
3574
3578
3576
3571
3586
3586
3575
3575
3575
3573
3573
3574
3583
3574
3572
3572
3583
3582
3579
3582
3582
3572
3579
3577
3577
3574
3577
3582
3581
3581
3575
3581
3584
3584
3584
3583
3567
3583
3576
3576
3576
3572
3573
3568
3568
3580
3590
3578
3575
3575
3576
3593
3573
3583
3583
3581
3578
3583
3554
3554
3577
3585
3577
3579
3579
3582
3582
3569
3587
3587
3588
3585
3596
3596
3581
3588
3595
3596
3596
3600
3589
3597
3605
3605
3589
3589
3598
3596
3596
3602
3597
3606
3606
3606
3601
3608
3607
3597
3597
3610
3610
3597
3613
3613
3605
3615
3613
3609
3609
3613
3618
3613
3628
3628
3620
3619
3606
3620
3620
3618
3619
3622
3622
3630
3630
3636
3621
3621
3629
3616
3638
3630
3630
3633
3631
3640
3639
3639
3624
3638
3638
3642
3642
3641
3645
3643
3640
3640
3639
3655
3650
3637
3637
3650
3645
3644
3662
3662
3655
3654
3653
3654
3654
3655
3659
3663
3663
3655
3662
3667
3667
3667
3656
3666
3657
3654
3654
3657
3666
3669
3662
3662
3665
3666
3664
3669
3669
3666
3671
3668
3674
3674
3690
3673
3670
3673
3673
3676
3673
3675
3676
3676
3672
3679
3686
3683
3683
3683
3678
3690
3673
3673
3683
3687
3684
3684
3690
3669
3694
3689
3689
3691
3699
3693
3692
3692
3690
3699
3697
3711
3711
3698
3686
3696
3693
3693
3702
3693
3687
3689
3689
3678
3682
3681
3670
3670
3677
3671
3667
3657
3657
3660
3654
3654
3649
3649
3639
3645
3635
3633
3633
3630
3621
3625
3625
3624
3616
3614
3615
3615
3612
3618
3596
3599
3599
3597
3587
3597
3593
3593
3594
3582
3587
3581
3581
3579
3582
3561
3570
3570
3574
3592
3577
3576
3576
3580
3559
3573
3569
3569
3578
3572
3570
3573
3573
3552
3576
3574
3574
3576
3572
3583
3579
3579
3578
3590
3578
3568
3568
3590
3576
3588
3590
3590
3593
3583
3583
3591
3591
3585
3580
3586
3578
3578
3580
3593
3598
3599
3599
3594
3594
3591
3597
3597
3611
3599
3595
3605
3605
3607
3615
3603
3607
3607
3602
3599
3604
3604
3610
3613
3605
3603
3603
3606
3606
3612
3610
3610
3616
3611
3609
3613
3613
3611
3616
3605
3613
3613
3606
3609
3630
3608
3608
3610
3606
3613
3614
3614
3618
3608
3614
3607
3607
3612
3613
3611
3617
3617
3607
3611
3618
3610
3610
3613
3604
3614
3614
3613
3614
3618
3615
3615
3618
3613
3612
3611
3611
3619
3616
3606
3614
3614
3621
3620
3621
3623
3623
3610
3617
3630
3617
3617
3608
3624
3615
3623
3623
3624
3630
3621
3626
3626
3632
3633
3627
3625
3625
3634
3620
3640
3634
3634
3632
3630
3629
3629
3636
3628
3649
3641
3641
3636
3633
3643
3646
3646
3646
3643
3650
3641
3641
3642
3649
3651
3650
3650
3640
3651
3640
3655
3655
3653
3657
3643
3651
3651
3651
3660
3658
3646
3646
3660
3660
3650
3666
3666
3666
3662
3663
3663
3668
3669
3665
3661
3661
3670
3665
3673
3682
3682
3668
3668
3685
3664
3664
3680
3676
3680
3673
3673
3670
3689
3678
3686
3686
3681
3686
3680
3686
3686
3677
3686
3683
3676
3676
3691
3696
3688
3681
3681
3690
3686
3695
3692
3692
3694
3687
3687
3687
3690
3698
3699
3694
3694
3700
3696
3703
3698
3698
3710
3703
3703
3699
3699
3699
3710
3701
3709
3709
3706
3702
3709
3717
3717
3702
3716
3712
3714
3714
3712
3723
3722
3716
3716
3715
3724
3710
3721
3721
3713
3715
3715
3708
3708
3717
3709
3710
3710
3706
3701
3709
3697
3697
3690
3688
3692
3687
3687
3699
3679
3683
3675
3675
3654
3656
3663
3648
3648
3650
3646
3650
3645
3645
3639
3638
3631
3633
3633
3626
3626
3608
3619
3619
3607
3623
3598
3611
3611
3610
3613
3594
3605
3605
3592
3610
3599
3599
3596
3588
3593
3590
3590
3591
3586
3591
3593
3593
3582
3588
3594
3587
3587
3582
3585
3595
3589
3589
3590
3590
3592
3587
3587
3591
3590
3589
3588
3588
3587
3599
3603
3589
3589
3596
3597
3588
3598
3598
3597
3594
3601
3603
3603
3591
3605
3603
3603
3601
3598
3605
3602
3602
3609
3605
3612
3608
3608
3614
3611
3634
3610
3610
3614
3614
3613
3615
3615
3611
3617
3624
3622
3622
3623
3632
3618
3625
3625
3619
3618
3616
3613
3613
3624
3620
3624
3622
3622
3612
3623
3621
3621
3606
3617
3625
3603
3603
3612
3623
3622
3618
3618
3622
3614
3626
3627
3627
3617
3615
3613
3631
3631
3620
3618
3617
3618
3618
3621
3622
3621
3616
3616
3616
3609
3608
3622
3622
3617
3615
3622
3616
3616
3620
3622
3628
3635
3635
3627
3640
3626
3626
3620
3620
3633
3635
3635
3623
3628
3641
3634
3634
3633
3632
3631
3638
3638
3633
3641
3641
3636
3636
3628
3635
3642
3636
3636
3629
3651
3657
3634
3634
3648
3654
3646
3642
3642
3649
3662
3648
3644
3644
3652
3661
3652
3658
3658
3653
3658
3653
3653
3675
3654
3666
3672
3672
3659
3658
3668
3663
3663
3677
3663
3664
3662
3662
3664
3667
3671
3672
3672
3673
3676
3677
3663
3663
3668
3675
3673
3675
3675
3670
3677
3673
3676
3676
3675
3683
3684
3684
3684
3676
3682
3695
3695
3675
3689
3692
3686
3686
3683
3681
3685
3684
3684
3687
3681
3687
3689
3689
3690
3686
3701
3685
3685
3692
3694
3706
3698
3698
3697
3707
3699
3696
3696
3697
3704
3696
3702
3702
3713
3703
3698
3702
3702
3714
3703
3702
3713
3713
3706
3711
3689
3689
3700
3710
3700
3714
3714
3716
3704
3716
3716
3716
3713
3712
3709
3715
3715
3717
3713
3719
3712
3712
3711
3707
3715
3710
3710
3707
3705
3700
3696
3696
3689
3693
3684
3684
3684
3686
3670
3676
3663
3663
3663
3659
3660
3645
3645
3647
3647
3641
3641
3635
3637
3642
3634
3634
3616
3609
3616
3615
3615
3611
3600
3612
3607
3607
3590
3617
3586
3600
3600
3596
3594
3589
3595
3595
3605
3586
3595
3577
3577
3598
3593
3583
3586
3586
3585
3587
3590
3583
3583
3582
3583
3591
3574
3574
3590
3588
3587
3587
3598
3585
3590
3587
3587
3599
3588
3591
3590
3590
3583
3577
3596
3594
3594
3594
3589
3595
3585
3585
3601
3595
3588
3596
3596
3595
3601
3598
3602
3602
3597
3594
3594
3606
3606
3599
3603
3589
3596
3596
3604
3599
3610
3610
3609
3602
3623
3606
3606
3613
3601
3601
3609
3609
3594
3601
3603
3607
3607
3590
3599
3600
3612
3612
3600
3605
3609
3611
3611
3603
3606
3597
3603
3603
3587
3597
3597
3609
3609
3608
3615
3604
3603
3603
3608
3614
3593
3601
3601
3602
3604
3600
3600
3605
3602
3620
3603
3603
3606
3608
3595
3604
3604
3601
3601
3598
3602
3602
3612
3601
3603
3614
3614
3605
3615
3601
3618
3618
3616
3610
3616
3615
3615
3612
3624
3618
3615
3615
3616
3628
3621
3619
3619
3624
3624
3621
3628
3628
3625
3623
3632
3632
3628
3626
3622
3631
3631
3629
3624
3624
3630
3630
3624
3631
3632
3640
3640
3631
3641
3639
3636
3636
3640
3651
3647
3644
3644
3643
3651
3638
3654
3654
3646
3649
3643
3644
3644
3645
3654
3644
3636
3636
3656
3656
3653
3647
3647
3652
3657
3655
3655
3652
3661
3661
3667
3667
3657
3644
3659
3659
3659
3676
3665
3661
3663
3663
3654
3666
3659
3673
3673
3665
3673
3673
3671
3671
3669
3662
3668
3673
3673
3668
3668
3672
3660
3660
3675
3671
3674
3669
3669
3668
3672
3688
3688
3676
3678
3686
3684
3684
3683
3683
3674
3682
3682
3680
3682
3689
3686
3686
3684
3683
3696
3688
3688
3696
3688
3698
3688
3688
3700
3694
3703
3703
3703
3694
3686
3685
3696
3696
3690
3696
3686
3691
3691
3688
3685
3680
3677
3677
3676
3676
3678
3678
3693
3663
3661
3661
3661
3669
3659
3648
3654
3654
3646
3639
3637
3644
3644
3623
3629
3624
3617
3617
3617
3613
3611
3611
3611
3603
3607
3600
3599
3599
3596
3599
3596
3596
3596
3594
3585
3593
3583
3583
3589
3594
3584
3584
3598
3585
3586
3582
3582
3579
3561
3582
3580
3580
3570
3581
3591
3580
3580
3590
3582
3583
3582
3582
3590
3582
3591
3586
3586
3586
3588
3585
3587
3587
3586
3597
3593
3579
3579
3598
3594
3587
3589
3589
3593
3598
3594
3581
3581
3591
3586
3588
3588
3590
3590
3596
3600
3600
3605
3600
3607
3600
3600
3597
3600
3604
3607
3607
3598
3595
3599
3600
3600
3604
3607
3595
3598
3598
3606
3611
3607
3600
3600
3592
3609
3607
3607
3607
3597
3607
3608
3607
3607
3615
3614
3603
3603
3597
3599
3611
3607
3607
3615
3606
3610
3618
3618
3603
3610
3608
3610
3610
3608
3613
3606
3611
3611
3606
3620
3615
3601
3601
3599
3605
3611
3611
3611
3614
3613
3621
3608
3608
3612
3616
3612
3619
3619
3612
3616
3616
3616
3616
3615
3614
3622
3622
3615
3617
3622
3623
3623
3630
3621
3629
3627
3627
3631
3626
3638
3628
3628
3632
3635
3634
3624
3624
3639
3630
3630
3633
3633
3628
3642
3629
3642
3642
3641
3632
3640
3640
3640
3638
3642
3647
3652
3652
3645
3662
3636
3650
3650
3641
3641
3652
3652
3653
3658
3655
3659
3659
3654
3661
3653
3657
3657
3654
3656
3659
3656
3656
3642
3661
3648
3668
3668
3668
3663
3669
3656
3656
3670
3672
3668
3668
3668
3674
3677
3674
3666
3666
3680
3681
3675
3673
3673
3681
3674
3676
3676
3683
3679
3697
3675
3675
3681
3681
3685
3681
3681
3682
3681
3689
3683
3683
3677
3675
3684
3692
3692
3687
3694
3686
3681
3681
3696
3692
3699
3691
3691
3705
3703
3690
3698
3698
3702
3699
3708
3702
3702
3707
3707
3700
3706
3706
3697
3706
3703
3703
3704
3691
3706
3711
3711
3705
3699
3713
3709
3709
3721
3709
3715
3705
3705
3706
3704
3701
3706
3706
3698
3692
3706
3695
3695
3706
3695
3695
3700
3700
3676
3682
3678
3660
3660
3671
3672
3661
3660
3660
3652
3655
3665
3648
3648
3639
3643
3639
3639
3636
3639
3640
3637
3637
3631
3635
3621
3621
3621
3621
3603
3620
3613
3613
3616
3618
3613
3619
3619
3614
3607
3612
3614
3614
3608
3612
3609
3607
3607
3607
3613
3607
3613
3613
3615
3606
3622
3620
3620
3609
3616
3615
3615
3607
3618
3625
3616
3616
3620
3613
3614
3616
3616
3617
3618
3616
3616
3616
3623
3610
3619
3628
3628
3621
3621
3624
3619
3619
3619
3636
3628
3624
3624
3627
3634
3623
3630
3630
3628
3629
3621
3634
3634
3631
3637
3632
3628
3628
3630
3641
3637
3637
3632
3638
3638
3636
3636
3629
3618
3635
3636
3636
3632
3632
3638
3637
3637
3637
3637
3622
3636
3636
3643
3635
3639
3640
3640
3638
3651
3640
3640
3640
3638
3643
3636
3640
3640
3641
3630
3642
3641
3641
3636
3644
3647
3647
3633
3645
3654
3644
3644
3647
3636
3650
3647
3647
3636
3639
3650
3651
3651
3633
3649
3655
3652
3652
3655
3651
3662
3646
3646
3652
3654
3669
3654
3654
3656
3647
3650
3654
3654
3659
3658
3663
3661
3661
3654
3659
3656
3659
3659
3677
3664
3665
3665
3673
3666
3668
3650
3650
3667
3653
3672
3666
3666
3673
3673
3667
3677
3677
3675
3684
3677
3677
3677
3683
3672
3677
3679
3679
3679
3684
3683
3679
3679
3688
3683
3679
3689
3689
3688
3681
3676
3684
3684
3690
3684
3679
3679
3699
3688
3691
3679
3679
3680
3693
3696
3692
3692
3700
3697
3697
3708
3708
3696
3701
3699
3708
3708
3696
3696
3698
3710
3710
3705
3708
3703
3704
3704
3704
3709
3704
3712
3712
3702
3712
3704
3689
3689
3707
3715
3711
3711
3711
3707
3717
3716
3716
3707
3712
3723
3721
3721
3711
3720
3719
3719
3719
3721
3720
3724
3720
3720
3717
3708
3726
3730
3730
3724
3718
3741
3719
3719
3722
3735
3722
3720
3720
3725
3732
3736
3733
3733
3732
3736
3729
3746
3746
3747
3744
3735
3735
3743
3732
3741
3726
3726
3738
3728
3724
3726
3726
3718
3723
3716
3708
3708
3714
3715
3715
3708
3708
3700
3696
3695
3691
3691
3688
3684
3686
3673
3673
3676
3672
3680
3667
3667
3666
3660
3665
3656
3656
3657
3665
3652
3651
3651
3654
3645
3649
3649
3648
3645
3647
3651
3651
3643
3634
3645
3636
3636
3645
3648
3643
3634
3634
3634
3642
3632
3631
3631
3644
3634
3631
3642
3642
3642
3638
3636
3640
3640
3662
3639
3635
3634
3634
3632
3652
3647
3637
3637
3642
3642
3637
3641
3641
3643
3643
3630
3630
3637
3635
3646
3636
3636
3642
3622
3640
3638
3638
3645
3647
3649
3645
3645
3638
3647
3641
3648
3648
3646
3643
3647
3653
3653
3653
3647
3649
3635
3635
3643
3646
3645
3647
3647
3650
3651
3651
3648
3648
3652
3648
3654
3654
3644
3649
3647
3648
3648
3653
3643
3652
3653
3653
3650
3649
3655
3646
3646
3653
3665
3654
3661
3661
3658
3648
3654
3649
3649
3659
3651
3654
3643
3643
3654
3651
3649
3654
3654
3657
3654
3647
3657
3657
3654
3644
3667
3650
3650
3649
3663
3652
3652
3665
3661
3673
3667
3667
3661
3653
3649
3661
3661
3667
3661
3656
3660
3660
3665
3661
3670
3654
3654
3667
3663
3658
3665
3665
3672
3668
3669
3662
3662
3660
3676
3671
3680
3680
3676
3675
3667
3674
3674
3670
3671
3674
3686
3686
3683
3704
3674
3674
3672
3681
3684
3682
3682
3683
3682
3679
3692
3692
3680
3683
3685
3683
3683
3688
3687
3686
3684
3684
3687
3680
3674
3697
3697
3695
3692
3691
3690
3690
3690
3693
3687
3693
3693
3703
3703
3691
3690
3690
3694
3709
3686
3686
3693
3700
3705
3699
3699
3704
3693
3706
3703
3703
3701
3703
3706
3709
3709
3707
3703
3713
3715
3715
3705
3709
3700
3710
3710
3703
3707
3705
3706
3706
3716
3717
3733
3710
3710
3714
3716
3698
3711
3711
3710
3718
3726
3721
3721
3701
3722
3711
3711
3712
3722
3721
3720
3720
3724
3718
3723
3719
3719
3717
3717
3723
3720
3720
3729
3731
3741
3725
3725
3720
3725
3722
3729
3729
3716
3721
3724
3716
3716
3715
3716
3711
3715
3715
3712
3702
3699
3699
3699
3698
3682
3694
3685
3685
3687
3669
3689
3689
3665
3679
3670
3670
3670
3672
3659
3663
3643
3643
3645
3652
3641
3669
3669
3646
3650
3641
3647
3647
3644
3640
3636
3628
3628
3626
3619
3638
3638
3638
3627
3632
3633
3626
3626
3625
3629
3624
3627
3627
3629
3630
3631
3631
3630
3626
3635
3630
3630
3617
3619
3647
3631
3631
3635
3624
3631
3625
3625
3628
3623
3626
3625
3625
3624
3633
3634
3621
3621
3625
3630
3628
3629
3629
3622
3634
3618
3635
3635
3631
3634
3630
3631
3631
3633
3631
3621
3639
3639
3632
3631
3642
3642
3653
3635
3641
3638
3638
3640
3629
3636
3635
3635
3638
3635
3626
3634
3634
3637
3637
3639
3637
3637
3648
3632
3639
3638
3638
3625
3639
3639
3636
3636
3639
3647
3641
3643
3643
3638
3629
3636
3643
3643
3636
3641
3634
3634
3633
3636
3645
3647
3647
3636
3642
3635
3633
3633
3642
3627
3640
3640
3640
3641
3629
3644
3639
3639
3644
3638
3643
3645
3645
3648
3651
3652
3646
3646
3643
3649
3653
3648
3648
3663
3657
3648
3657
3657
3658
3656
3640
3652
3652
3655
3657
3655
3655
3662
3652
3662
3654
3654
3659
3642
3656
3663
3663
3662
3650
3673
3672
3672
3660
3663
3662
3671
3671
3667
3668
3664
3671
3671
3666
3665
3675
3681
3681
3675
3675
3671
3667
3667
3681
3675
3680
3684
3684
3687
3682
3678
3676
3676
3683
3681
3688
3688
3684
3679
3683
3692
3692
3680
3684
3699
3688
3688
3686
3687
3690
3692
3692
3700
3713
3699
3695
3695
3703
3696
3697
3700
3700
3695
3703
3686
3688
3688
3698
3704
3702
3699
3699
3702
3703
3700
3709
3709
3716
3693
3699
3699
3713
3702
3712
3705
3705
3708
3707
3710
3710
3710
3712
3693
3702
3717
3717
3711
3707
3712
3712
3712
3717
3715
3706
3715
3715
3716
3730
3718
3718
3718
3721
3721
3722
3722
3722
3720
3725
3721
3731
3731
3728
3715
3725
3729
3729
3728
3722
3732
3732
3730
3726
3745
3729
3729
3739
3722
3724
3725
3725
3723
3712
3720
3709
3709
3703
3712
3712
3710
3710
3707
3707
3690
3701
3701
3698
3688
3685
3675
3675
3684
3687
3674
3675
3675
3671
3678
3671
3666
3666
3664
3663
3653
3653
3653
3650
3650
3651
3651
3649
3638
3652
3635
3635
3647
3637
3644
3643
3643
3639
3627
3640
3634
3634
3647
3627
3639
3639
3639
3643
3632
3643
3626
3626
3640
3633
3634
3635
3635
3639
3641
3654
3634
3634
3633
3636
3636
3626
3626
3636
3644
3625
3638
3638
3636
3647
3640
3640
3650
3639
3646
3642
3642
3639
3631
3643
3622
3622
3643
3644
3646
3642
3642
3648
3644
3647
3638
3638
3645
3652
3646
3639
3639
3647
3657
3650
3643
3643
3638
3642
3647
3648
3648
3645
3649
3654
3647
3647
3650
3643
3648
3647
3647
3654
3655
3647
3647
3647
3646
3654
3647
3647
3659
3645
3642
3656
3656
3649
3645
3652
3659
3659
3657
3643
3645
3634
3634
3647
3650
3651
3645
3645
3658
3645
3637
3642
3642
3650
3645
3649
3646
3646
3643
3638
3652
3637
3637
3669
3654
3656
3652
3652
3650
3650
3662
3662
3650
3658
3654
3656
3656
3654
3662
3654
3661
3661
3653
3655
3652
3654
3654
3658
3665
3651
3661
3661
3666
3655
3660
3666
3666
3669
3663
3660
3664
3664
3664
3666
3670
3667
3667
3666
3665
3667
3674
3674
3672
3666
3673
3673
3690
3664
3675
3676
3676
3673
3674
3675
3677
3677
3676
3678
3684
3689
3689
3679
3687
3675
3678
3678
3675
3680
3684
3692
3692
3669
3688
3676
3690
3690
3684
3699
3687
3688
3688
3684
3690
3678
3688
3688
3689
3687
3691
3690
3690
3685
3689
3690
3690
3696
3695
3695
3693
3693
3697
3694
3695
3687
3687
3698
3693
3688
3707
3707
3698
3697
3694
3704
3704
3702
3711
3696
3709
3709
3692
3703
3706
3701
3701
3720
3705
3710
3707
3707
3716
3703
3706
3709
3709
3716
3712
3705
3711
3711
3713
3710
3711
3711
3718
3714
3717
3714
3714
3726
3697
3721
3719
3719
3716
3715
3710
3710
3710
3711
3700
3709
3713
3713
3708
3706
3708
3695
3695
3699
3693
3686
3690
3690
3693
3682
3687
3678
3678
3678
3678
3673
3669
3669
3669
3664
3662
3634
3634
3652
3650
3651
3651
3648
3645
3647
3647
3647
3632
3646
3645
3641
3641
3636
3632
3628
3635
3635
3636
3633
3626
3639
3639
3630
3620
3619
3624
3624
3630
3633
3622
3637
3637
3614
3629
3630
3630
3630
3637
3608
3629
3636
3636
3636
3627
3624
3624
3632
3629
3640
3620
3620
3639
3631
3637
3627
3627
3643
3625
3634
3633
3633
3631
3630
3640
3637
3637
3628
3647
3636
3641
3641
3637
3641
3639
3636
3636
3648
3654
3640
3643
3643
3642
3645
3643
3648
3648
3643
3652
3636
3645
3645
3647
3654
3642
3642
3645
3650
3649
3662
3662
3630
3640
3643
3651
3651
3636
3644
3639
3646
3646
3646
3647
3642
3642
3642
3642
3645
3623
3646
3646
3644
3649
3650
3649
3649
3651
3646
3643
3647
3647
3667
3647
3643
3652
3652
3654
3647
3645
3645
3658
3634
3657
3660
3660
3649
3654
3663
3655
3655
3654
3644
3648
3652
3652
3650
3651
3653
3654
3654
3652
3660
3660
3659
3659
3659
3656
3649
3656
3656
3664
3668
3675
3656
3656
3662
3670
3658
3671
3671
3655
3671
3653
3664
3664
3659
3673
3663
3663
3672
3664
3678
3671
3671
3681
3675
3673
3667
3667
3670
3674
3672
3669
3669
3684
3678
3679
3678
3678
3671
3691
3678
3687
3687
3687
3684
3685
3694
3694
3685
3686
3689
3690
3690
3692
3694
3693
3683
3683
3692
3691
3691
3691
3705
3696
3704
3697
3697
3698
3700
3696
3700
3700
3700
3694
3698
3696
3696
3701
3703
3701
3724
3724
3708
3706
3705
3708
3708
3707
3711
3706
3709
3709
3708
3706
3708
3712
3712
3705
3720
3723
3718
3718
3717
3715
3716
3708
3708
3718
3712
3717
3717
3723
3720
3729
3720
3720
3725
3724
3731
3728
3728
3727
3727
3729
3722
3722
3723
3720
3730
3726
3726
3724
3714
3735
3726
3726
3730
3733
3723
3726
3726
3727
3732
3725
3716
3716
3717
3725
3712
3723
3723
3715
3711
3697
3697
3687
3700
3709
3700
3700
3707
3689
3697
3671
3671
3674
3681
3660
3673
3673
3675
3669
3658
3654
3654
3665
3658
3658
3657
3657
3653
3651
3652
3648
3648
3630
3651
3644
3646
3646
3643
3645
3634
3622
3622
3640
3631
3634
3626
3626
3637
3634
3635
3635
3634
3634
3642
3636
3636
3639
3632
3635
3637
3637
3634
3631
3633
3622
3622
3635
3631
3635
3628
3628
3635
3635
3635
3634
3634
3633
3638
3636
3637
3637
3643
3645
3637
3643
3643
3649
3628
3634
3636
3636
3635
3640
3646
3647
3647
3645
3645
3631
3631
3635
3643
3645
3645
3645
3646
3644
3633
3649
3649
3644
3632
3645
3653
3653
3643
3647
3652
3650
3650
3649
3646
3650
3655
3655
3650
3654
3656
3650
3650
3654
3660
3645
3654
3654
3653
3650
3662
3656
3656
3652
3653
3649
3649
3657
3655
3661
3661
3661
3653
3652
3652
3660
3660
3656
3657
3660
3656
3656
3656
3653
3655
3664
3664
3660
3685
3662
3653
3653
3660
3663
3665
3659
3659
3664
3665
3666
3665
3665
3669
3663
3664
3670
3670
3660
3672
3677
3674
3674
3662
3669
3673
3673
3664
3678
3677
3675
3675
3672
3673
3680
3675
3675
3677
3685
3682
3675
3675
3678
3674
3687
3682
3682
3686
3683
3688
3695
3695
3692
3693
3692
3688
3688
3686
3697
3690
3700
3700
3692
3699
3705
3703
3703
3689
3708
3703
3714
3714
3699
3698
3701
3701
3709
3703
3724
3703
3703
3702
3706
3709
3691
3691
3716
3711
3716
3718
3718
3710
3708
3725
3720
3720
3712
3730
3712
3724
3724
3724
3725
3724
3722
3722
3723
3731
3729
3724
3724
3737
3732
3723
3728
3728
3740
3729
3731
3731
3733
3738
3751
3737
3737
3738
3736
3732
3739
3739
3737
3734
3745
3747
3747
3743
3744
3748
3746
3746
3751
3743
3741
3744
3744
3754
3740
3746
3755
3755
3743
3759
3753
3760
3760
3749
3765
3762
3750
3750
3757
3755
3758
3763
3763
3759
3748
3768
3768
3762
3745
3767
3761
3761
3756
3759
3756
3758
3758
3761
3757
3755
3742
3742
3748
3753
3755
3743
3743
3747
3744
3737
3737
3737
3736
3732
3733
3728
3728
3724
3722
3718
3716
3716
3716
3717
3708
3705
3705
3701
3692
3706
3697
3697
3696
3695
3692
3692
3688
3687
3683
3691
3691
3684
3688
3690
3680
3680
3682
3680
3686
3675
3675
3687
3672
3678
3697
3697
3686
3690
3677
3684
3684
3679
3688
3684
3697
3697
3681
3682
3681
3671
3671
3678
3680
3681
3679
3679
3689
3683
3678
3678
3672
3685
3686
3688
3688
3682
3694
3684
3684
3684
3681
3683
3695
3690
3690
3688
3682
3684
3690
3690
3677
3685
3694
3684
3684
3692
3696
3684
3695
3695
3693
3689
3689
3692
3692
3695
3703
3691
3686
3686
3698
3693
3703
3694
3694
3707
3694
3694
3694
3702
3687
3704
3701
3701
3719
3707
3693
3700
3700
3697
3691
3704
3702
3702
3704
3694
3691
3699
3699
3707
3703
3707
3707
3707
3697
3710
3707
3701
3701
3691
3715
3700
3706
3706
3709
3721
3705
3719
3719
3704
3709
3714
3708
3708
3703
3705
3710
3710
3713
3704
3713
3709
3709
3708
3693
3709
3713
3713
3710
3712
3711
3715
3715
3708
3717
3723
3718
3718
3723
3721
3721
3716
3716
3719
3719
3721
3713
3713
3723
3735
3731
3726
3726
3737
3727
3723
3731
3731
3725
3719
3730
3730
3739
3723
3733
3718
3718
3723
3745
3732
3734
3734
3726
3734
3738
3736
3736
3737
3735
3744
3744
3744
3740
3741
3747
3753
3753
3743
3746
3744
3749
3749
3756
3753
3734
3746
3746
3744
3758
3748
3751
3751
3749
3751
3752
3757
3757
3753
3760
3747
3747
3760
3765
3765
3757
3757
3773
3762
3759
3768
3768
3775
3761
3775
3763
3763
3770
3771
3768
3763
3763
3773
3778
3776
3775
3775
3772
3774
3778
3764
3764
3774
3775
3767
3768
3768
3782
3781
3773
3779
3779
3783
3783
3777
3784
3784
3790
3770
3781
3781
3786
3780
3791
3787
3787
3783
3784
3799
3785
3785
3796
3790
3789
3792
3792
3793
3785
3787
3796
3796
3777
3796
3780
3779
3779
3783
3794
3777
3782
3782
3786
3777
3773
3769
3769
3774
3768
3760
3771
3771
3763
3761
3755
3755
3753
3737
3758
3750
3750
3747
3740
3746
3747
3747
3742
3737
3730
3729
3729
3734
3728
3729
3723
3723
3714
3731
3718
3716
3716
3718
3723
3717
3718
3718
3720
3719
3714
3715
3715
3717
3705
3714
3716
3716
3720
3716
3715
3717
3717
3712
3715
3718
3718
3708
3713
3714
3718
3718
3713
3728
3717
3704
3704
3727
3716
3708
3722
3722
3719
3719
3720
3726
3726
3722
3723
3723
3726
3726
3727
3723
3721
3722
3722
3721
3727
3728
3724
3724
3722
3730
3747
3727
3727
3727
3731
3733
3733
3733
3738
3738
3730
3730
3730
3720
3739
3731
3731
3734
3728
3734
3740
3740
3731
3732
3743
3737
3737
3735
3739
3726
3733
3733
3731
3730
3748
3733
3733
3739
3739
3738
3732
3732
3736
3742
3742
3736
3736
3737
3733
3735
3739
3739
3740
3737
3744
3744
3738
3741
3739
3750
3750
3743
3739
3743
3756
3756
3744
3751
3747
3740
3740
3738
3749
3748
3739
3739
3747
3745
3755
3759
3759
3750
3745
3752
3755
3755
3754
3756
3745
3755
3755
3752
3740
3756
3754
3754
3761
3757
3761
3752
3752
3755
3762
3761
3761
3764
3756
3769
3758
3758
3766
3755
3765
3759
3759
3768
3765
3778
3768
3768
3764
3769
3773
3764
3764
3774
3776
3769
3788
3788
3774
3776
3786
3778
3778
3778
3770
3771
3785
3785
3786
3777
3770
3782
3782
3783
3791
3784
3787
3787
3782
3788
3789
3789
3793
3785
3791
3791
3791
3793
3782
3792
3789
3789
3789
3788
3799
3786
3786
3795
3800
3782
3800
3800
3800
3804
3800
3806
3806
3804
3807
3803
3803
3803
3797
3803
3802
3804
3804
3816
3810
3810
3805
3805
3809
3810
3811
3811
3800
3814
3817
3815
3815
3825
3806
3815
3812
3812
3817
3816
3821
3806
3806
3819
3805
3823
3820
3820
3822
3822
3827
3820
3820
3824
3826
3835
3820
3820
3825
3832
3826
3827
3827
3831
3830
3830
3827
3827
3839
3824
3827
3823
3823
3824
3828
3828
3828
3818
3824
3824
3813
3813
3817
3814
3814
3812
3812
3797
3805
3800
3784
3784
3796
3790
3801
3802
3802
3783
3772
3775
3790
3790
3779
3774
3770
3780
3780
3771
3767
3764
3766
3766
3770
3759
3762
3758
3758
3755
3754
3749
3760
3760
3757
3749
3757
3757
3750
3753
3756
3748
3748
3743
3742
3749
3754
3754
3739
3754
3739
3746
3746
3742
3745
3754
3738
3738
3744
3774
3747
3743
3743
3748
3758
3759
3750
3750
3748
3750
3745
3739
3739
3744
3749
3756
3752
3752
3751
3750
3749
3750
3750
3754
3752
3751
3751
3751
3750
3749
3750
3750
3751
3740
3748
3755
3755
3752
3751
3757
3742
3742
3754
3752
3757
3749
3749
3755
3757
3760
3758
3758
3752
3763
3755
3757
3757
3753
3752
3744
3760
3760
3757
3748
3761
3773
3773
3758
3755
3762
3762
3754
3761
3764
3758
3758
3754
3753
3784
3750
3750
3760
3756
3754
3755
3755
3763
3760
3761
3759
3759
3750
3752
3764
3755
3755
3764
3758
3756
3757
3757
3759
3766
3753
3767
3767
3762
3761
3764
3761
3761
3778
3769
3759
3767
3767
3765
3763
3775
3775
3761
3768
3772
3774
3774
3760
3766
3758
3768
3768
3768
3770
3768
3777
3777
3763
3767
3775
3782
3782
3778
3755
3778
3785
3785
3773
3771
3778
3790
3790
3781
3783
3776
3786
3786
3788
3783
3794
3779
3779
3778
3790
3785
3776
3776
3789
3780
3773
3773
3785
3770
3794
3779
3779
3787
3787
3792
3792
3792
3788
3789
3795
3771
3771
3787
3790
3789
3799
3799
3800
3794
3813
3802
3802
3793
3794
3796
3796
3796
3796
3804
3802
3801
3801
3798
3798
3810
3802
3802
3814
3806
3810
3805
3805
3805
3818
3809
3809
3811
3809
3811
3812
3812
3803
3810
3826
3813
3813
3818
3821
3818
3819
3819
3817
3817
3810
3842
3842
3822
3829
3822
3824
3824
3821
3827
3820
3817
3817
3819
3826
3826
3833
3833
3832
3841
3828
3826
3826
3832
3838
3835
3835
3818
3829
3841
3836
3836
3831
3833
3829
3835
3835
3827
3828
3830
3829
3829
3818
3812
3824
3812
3812
3828
3808
3810
3810
3810
3804
3814
3809
3801
3801
3795
3803
3787
3781
3781
3786
3786
3772
3779
3779
3779
3777
3771
3765
3765
3762
3764
3768
3768
3763
3760
3761
3756
3756
3776
3750
3751
3746
3746
3748
3749
3750
3757
3757
3744
3738
3743
3739
3739
3739
3738
3743
3752
3752
3732
3748
3747
3736
3736
3733
3748
3740
3742
3742
3746
3747
3741
3743
3743
3752
3738
3740
3742
3742
3746
3742
3743
3743
3745
3746
3748
3744
3744
3741
3734
3741
3735
3735
3746
3741
3742
3747
3747
3744
3746
3746
3737
3737
3747
3754
3741
3745
3745
3744
3743
3739
3751
3751
3748
3747
3746
3741
3741
3766
3737
3748
3746
3746
3744
3753
3742
3750
3750
3748
3752
3740
3740
3745
3753
3747
3747
3747
3744
3743
3735
3746
3746
3746
3727
3745
3743
3743
3735
3742
3752
3753
3753
3735
3743
3746
3738
3738
3756
3744
3740
3740
3740
3750
3754
3747
3751
3751
3751
3751
3750
3753
3753
3750
3748
3751
3757
3757
3755
3749
3752
3752
3752
3751
3756
3757
3757
3765
3742
3755
3753
3753
3752
3757
3748
3758
3758
3753
3764
3761
3760
3760
3750
3756
3762
3749
3749
3759
3750
3760
3747
3747
3767
3769
3763
3754
3754
3763
3760
3758
3765
3765
3762
3759
3765
3775
3775
3777
3773
3764
3764
3775
3770
3777
3772
3772
3768
3772
3785
3779
3779
3768
3772
3777
3781
3781
3770
3778
3780
3774
3774
3792
3779
3779
3780
3780
3788
3785
3765
3785
3785
3780
3784
3775
3789
3789
3785
3786
3788
3788
3788
3777
3795
3781
3781
3780
3786
3812
3803
3803
3794
3782
3806
3800
3800
3793
3791
3801
3790
3790
3802
3796
3803
3803
3803
3810
3805
3801
3804
3804
3806
3807
3794
3798
3798
3804
3810
3811
3807
3807
3817
3803
3802
3806
3806
3816
3812
3812
3818
3818
3804
3819
3806
3806
3819
3818
3824
3818
3818
3829
3813
3822
3814
3814
3827
3818
3821
3817
3817
3818
3803
3820
3816
3816
3815
3814
3822
3811
3811
3811
3812
3814
3805
3805
3807
3798
3811
3799
3799
3799
3794
3785
3786
3786
3784
3773
3765
3779
3779
3774
3770
3764
3764
3763
3759
3759
3751
3751
3744
3745
3744
3736
3736
3759
3740
3742
3736
3736
3738
3737
3736
3729
3729
3733
3733
3723
3717
3717
3729
3727
3725
3724
3724
3721
3716
3720
3741
3741
3712
3720
3723
3721
3721
3716
3724
3717
3721
3721
3715
3717
3725
3725
3719
3723
3714
3720
3720
3726
3726
3719
3705
3705
3726
3722
3725
3720
3720
3721
3717
3730
3717
3717
3723
3720
3713
3729
3729
3732
3733
3723
3723
3723
3722
3741
3720
3721
3721
3724
3725
3729
3711
3711
3724
3729
3720
3725
3725
3727
3731
3726
3726
3731
